Wavelength (nm),Absorbance,"Energy, eV",Direct transition,Indirect transition
190.0,6.814,6.526315789473684,1977.6089864155122,6.6686067352539
190.5,7.167,6.509186351706036,2176.347391555583,6.830178517628743
191.0,7.181,6.492146596858639,2173.43416336175,6.827891674011963
191.5,7.419,6.4751958224543085,2307.791427948926,6.931051710006823
192.0,8.072,6.458333333333333,2717.7106694444437,7.220226219909364
192.5,8.636,6.441558441558442,3094.6188739983136,7.45850512511044
193.0,9.16,6.424870466321243,3463.5359488845334,7.671493561980131
193.5,8.402,6.40826873385013,2898.990458917399,7.337729478647246
194.0,8.786,6.391752577319588,3153.714016622383,7.493860029672952
194.5,8.54,6.375321336760925,2964.2846177331626,7.378702068517084
195.0,8.641,6.358974358974359,3019.2714326259033,7.412684900621193
195.5,8.678,6.342710997442455,3029.626831807747,7.419032688686958
196.0,8.554,6.326530612244898,2928.6651510204083,7.356435472234012
196.5,8.847,6.310432569974555,3116.8099056232154,7.471840265059531
197.0,8.804,6.2944162436548226,3070.937556793527,7.444195094779358
197.5,8.982,6.2784810126582276,3180.2061408722952,7.509548352310956
198.0,9.158,6.262626262626263,3289.3816714212835,7.573185017753845
198.5,9.217,6.246851385390428,3315.1373245538016,7.587966079203542
199.0,9.359,6.231155778894473,3400.9176188884126,7.636582150063821
199.5,9.122,6.215538847117794,3214.6796876502026,7.529817086982161
200.0,9.369,6.2,3374.1925088400003,7.621535278406839
200.5,9.272,6.184538653366584,3288.2245110017975,7.572518893605678
201.0,9.369,6.169154228855722,3340.701971574961,7.602552595684508
201.5,9.132,6.153846153846154,3158.0941633136094,7.496460703353488
202.0,9.321,6.138613861386139,3273.901790059798,7.564259369031459
202.5,9.57,6.1234567901234565,3434.1336318244166,7.655160447794773
203.0,9.759,6.108374384236453,3553.5459085539565,7.720856533815632
203.5,9.689,6.093366093366093,3485.5591330970906,7.683659549890539
204.0,9.583,6.078431372549019,3393.0168138792774,7.632143070143356
204.5,9.522,6.06356968215159,3333.5970253262485,7.59850712399794
205.0,9.492,6.048780487804878,3296.485025732303,7.577270246615459
205.5,9.427,6.034063260340632,3235.6886987503026,7.5420895218255755
206.0,9.584,6.019417475728155,3328.147301951173,7.59539973190211
206.5,9.595,6.004842615012106,3319.657026540579,7.590551026838642
207.0,9.751,5.990338164251208,3411.9369118905925,7.642760459389888
207.5,9.638,5.975903614457831,3317.27145894963,7.589186981234853
208.0,9.709,5.961538461538462,3350.1611849482247,7.607928556649104
208.5,9.703,5.947242206235012,3329.9929531689754,7.596452535697062
209.0,9.769,5.9330143540669855,3359.3172288546507,7.613121385140288
209.5,9.792,5.918854415274463,3359.0628152357303,7.612977238529454
210.0,9.803,5.904761904761905,3350.6015582403634,7.608178556815091
210.5,9.791,5.890736342042755,3326.543991640761,7.594484809711625
211.0,9.743,5.876777251184834,3278.414522189529,7.5668646583835395
211.5,9.769,5.862884160756501,3280.3701104594556,7.5679928228315765
212.0,9.767,5.849056603773585,3263.5782032395864,7.558289214435804
212.5,9.851,5.8352941176470585,3304.3507434209,7.581786224428988
213.0,9.991,5.821596244131455,3383.0006512288123,7.626504315550957
213.5,10.005,5.807962529274005,3376.6169603299536,7.622903981120739
214.0,10.079,5.794392523364486,3410.7564888112506,7.642099334802621
214.5,9.958,5.7808857808857805,3313.8513337006425,7.587230101035595
215.0,9.997,5.767441860465116,3324.3430576181713,7.593228317327865
215.5,10.024,5.7540603248259865,3326.8325139851745,7.594649478156032
216.0,10.193,5.7407407407407405,3424.048569581618,7.649533996941929
216.5,10.132,5.727482678983834,3367.5800744022317,7.617798533924628
217.0,10.127,5.714285714285714,3348.771559183674,7.607139503688061
217.5,10.136,5.7011494252873565,3339.3200993441665,7.601766279932095
218.0,10.172,5.6880733944954125,3347.673435704065,7.60651579692091
218.5,10.104,5.675057208237987,3287.9648253192922,7.572369380321896
219.0,10.089,5.662100456621005,3263.2577996622263,7.558103697810008
219.5,10.114,5.649202733485193,3264.5266608122624,7.558838300061012
220.0,10.21,5.636363636363637,3311.6885983471084,7.585991874980669
220.5,10.21,5.62358276643991,3296.686630776272,7.577386095834862
221.0,10.222,5.610859728506787,3289.5051919166267,7.573256112452317
221.5,10.222,5.598194130925508,3274.670914570775,7.564703590116439
222.0,10.308,5.585585585585585,3315.0206737764784,7.587899328286862
222.5,10.354,5.573033707865169,3329.6582528791814,7.596261647102208
223.0,10.359,5.560538116591928,3317.945975700296,7.58957273828875
223.5,10.271,5.5480984340044746,3247.235407446112,7.54880911241369
224.0,10.314,5.535714285714286,3259.8798072704076,7.556146977319667
224.5,10.317,5.523385300668151,3247.2635728275154,7.548825481291332
225.0,10.365,5.511111111111111,3262.9990471111114,7.557953867725488
225.5,10.343,5.498891352549889,3234.76940826053,7.541553769577162
226.0,10.271,5.486725663716814,3175.7912695120995,7.506940741209791
226.5,10.247,5.474613686534217,3147.0267179002876,7.489884274534295
227.0,10.189,5.462555066079295,3097.810021727571,7.460427170630509
227.5,10.214,5.450549450549451,3099.3617955242125,7.461361275793586
228.0,10.071,5.43859649122807,2999.983514958449,7.400817877988749
228.5,10.194,5.426695842450766,3060.273347990175,7.4377239406920115
229.0,10.247,5.414847161572053,3078.6894116893272,7.44888843147948
229.5,10.303,5.403050108932462,3098.8845034606825,7.4610740026038584
230.0,10.179,5.391304347826087,3011.6044280075616,7.407974551557379
230.5,10.129,5.379609544468547,2969.1671919782048,7.381738621484908
231.0,10.209,5.367965367965368,3003.2108076235454,7.4028074702479225
231.5,10.318,5.356371490280778,3054.4458249541685,7.43418058946089
232.0,10.33,5.344827586206897,3048.372559453033,7.430482418088158
232.5,10.323,5.333333333333333,3031.1631359999997,7.419973045773145
233.0,10.253,5.3218884120171674,2977.374352786015,7.386834361782591
233.5,10.206,5.310492505353319,2937.5192988844005,7.361989303825154
234.0,10.184,5.299145299145299,2912.382660997881,7.346189197570106
234.5,10.221,5.287846481876333,2921.0867366778657,7.351671843278779
235.0,10.242,5.276595744680851,2920.6343505006794,7.351387189981309
235.5,10.266,5.265392781316348,2921.8913803237447,7.352178064559755
236.0,10.222,5.254237288135593,2884.636653950014,7.328629719075868
236.5,10.25,5.2431289640591965,2888.210290127788,7.330898436181391
237.0,10.22,5.232067510548523,2859.2259046805184,7.3124366635073095
237.5,10.164,5.221052631578948,2816.0830278488643,7.284694842432895
238.0,10.108,5.2100840336134455,2773.447330103807,7.256964200804956
238.5,10.028,5.19916142557652,2718.2866619797924,7.2206087538157995
239.0,10.109,5.188284518828452,2750.831326930551,7.2421245640237935
239.5,10.181,5.177453027139875,2778.517968690862,7.260278869940952
240.0,10.242,5.166666666666667,2800.208889000001,7.274407192342205
240.5,10.212,5.155925155925156,2772.265505325444,7.2561909906167505
241.0,10.139,5.145228215767635,2721.4448093111346,7.222705094330521
241.5,10.119,5.134575569358178,2699.5059681956714,7.2081044794269875
242.0,10.139,5.12396694214876,2698.9999994809095,7.207766701721573
242.5,10.124,5.11340206185567,2679.934363058348,7.19500399403828
243.0,10.091,5.102880658436214,2651.546425267151,7.175874073886737
243.5,10.095,5.092402464065708,2642.7621964084688,7.169923491554378
244.0,10.118,5.081967213114754,2643.9489643644183,7.170728293715714
244.5,10.136,5.071574642126789,2642.5234328996607,7.169761542240936
245.0,10.086,5.061224489795919,2605.848298035819,7.144754033840608
245.5,10.119,5.05091649694501,2612.2550006611887,7.149141489199004
246.0,10.162,5.040650406504065,2623.8048908453975,7.1570307691733674
246.5,10.156,5.0304259634888435,2610.086542772857,7.14765738442972
247.0,10.101,5.020242914979757,2571.450721329641,7.121058466563137
247.5,10.056,5.01010101010101,2538.3031758163447,7.097998010536193
248.0,10.028,5.0,2514.0196,7.080960386840192
248.5,10.021,4.989939637826962,2500.41852858155,7.071363737686245
249.0,10.003,4.979919678714859,2481.4481998419374,7.057913044674377
249.5,9.984,4.969939879759519,2462.132467349127,7.044137971357392
250.0,9.983,4.96,2451.8025658624,7.036737880580746
250.5,9.927,4.950099800399202,2414.704289949442,7.009967240905115
251.0,9.963,4.940239043824701,2422.569181035222,7.0156682927306
251.5,9.941,4.930417495029821,2402.3016475398113,7.000948529884465
252.0,9.944,4.920634920634921,2394.222567296549,6.995054942657252
252.5,9.903,4.910891089108911,2365.1253528618763,6.973704500152379
253.0,9.91,4.901185770750988,2359.1178515521256,6.969271912340793
253.5,9.953,4.891518737672584,2370.257072517691,6.977484216825949
254.0,9.951,4.881889763779528,2359.9857985243975,6.9699128430253765
254.5,9.943,4.87229862475442,2346.9437228110123,6.960263301480282
255.0,9.906,4.862745098039215,2320.382902477508,6.940486506087053
255.5,9.918,4.853228962818004,2316.9132290761745,6.937890518971091
256.0,9.886,4.84375,2293.0031532226562,6.919921422964281
256.5,9.899,4.834307992202729,2290.083300960219,6.917717456995104
257.0,9.889,4.824902723735408,2276.5745547941674,6.907493252622072
257.5,9.892,4.815533980582524,2269.1181987580353,6.901830346793691
258.0,9.892,4.8062015503875966,2260.331689297517,6.895139283323731
258.5,9.845,4.796905222437137,2230.2508646446354,6.87208352065759
259.0,9.886,4.787644787644788,2240.1910324771543,6.87972792853441
259.5,9.821,4.7784200385356455,2202.3182010996393,6.850464451295151
260.0,9.845,4.769230769230769,2204.591432544379,6.852231528712156
260.5,9.785,4.760076775431862,2169.449649242377,6.824760160445257
261.0,9.85,4.75095785440613,2189.9531128433227,6.8408285218897555
261.5,9.817,4.741873804971319,2166.993286801765,6.822827503565032
262.0,9.84,4.732824427480916,2168.8573299924246,6.824294276070765
262.5,9.796,4.723809523809524,2141.323621030023,6.802531741582548
263.0,9.824,4.714828897338403,2145.4015049747723,6.805768074762207
263.5,9.809,4.705882352941177,2130.7455999999997,6.794115100585211
264.0,9.833,4.696969696969697,2133.0822160009184,6.795976973938554
264.5,9.814,4.688090737240076,2116.8209491761395,6.7829877263101475
265.0,9.799,4.679245283018868,2102.398982949092,6.771404915399897
265.5,9.795,4.670433145009416,2092.7781876216927,6.763644923808998
266.0,9.797,4.661654135338346,2085.7695030583986,6.757974960290233
266.5,9.809,4.652908067542214,2083.04385154793,6.755766073105371
267.0,9.816,4.644194756554307,2078.2124729705843,6.751845357406897
267.5,9.774,4.635514018691588,2052.7708265539345,6.731085649335594
268.0,9.707,4.626865671641791,2017.1762283136557,6.7017150845605835
268.5,9.692,4.618249534450651,2003.4642681619728,6.690297040333539
269.0,9.716,4.609665427509293,2005.9209887314987,6.692347069129058
269.5,9.773,4.601113172541744,2022.0022234592336,6.705719874498969
270.0,9.717,4.592592592592593,1991.4997098271608,6.680286088351473
270.5,9.685,4.584103512014788,1971.0973839777782,6.663110573438146
271.0,9.656,4.575645756457565,1952.0876000272328,6.646986943296508
271.5,9.661,4.567219152854512,1946.9189250036457,6.642582648016315
272.0,9.66,4.5588235294117645,1939.3661678200692,6.6361310485943275
272.5,9.706,4.5504587155963305,1950.7020081622757,6.645807121304228
273.0,9.652,4.542124542124542,1921.9969878892778,6.621222400779638
273.5,9.617,4.53382084095064,1901.113041471347,6.60316250196997
274.0,9.56,4.525547445255475,1871.7939069742665,6.577555288756024
274.5,9.55,4.517304189435337,1861.0816022508222,6.5681241621263124
275.0,9.521,4.509090909090909,1843.0754443847932,6.552179373724024
275.5,9.48,4.500907441016334,1820.6096427877385,6.532120830238434
276.0,9.508,4.492753623188406,1824.7507562276833,6.535832116056483
276.5,9.507,4.4846292947558775,1817.7748351735893,6.529576609952909
277.0,9.513,4.4765342960288805,1813.5052855426236,6.525739096694162
277.5,9.443,4.468468468468468,1780.4811279915589,6.495825409272308
278.0,9.469,4.460431654676259,1783.8651109362863,6.498909703798745
278.5,9.479,4.452423698384201,1781.221866070156,6.496500922572384
279.0,9.518,4.444444444444445,1789.478004938272,6.504015853472548
279.5,9.523,4.43649373881932,1784.9551760318222,6.499902297325428
280.0,9.46,4.428571428571429,1755.1311755102047,6.472579525528112
280.5,9.45,4.420677361853833,1745.1841345191453,6.463389286552274
281.0,9.436,4.412811387900356,1733.8303264852268,6.452851172638941
281.5,9.466,4.404973357015986,1738.679654674116,6.457358422568265
282.0,9.42,4.397163120567376,1715.722154821186,6.435936341803318
282.5,9.39,4.389380530973451,1698.7819996554156,6.419990902317597
283.0,9.363,4.381625441696113,1683.0636718450721,6.4050885248059375
283.5,9.39,4.37389770723104,1686.8187833487302,6.4086581646160115
284.0,9.314,4.366197183098592,1653.785414719302,6.377049518655181
284.5,9.328,4.3585237258347975,1652.935487083373,6.37623002365716
285.0,9.301,4.350877192982456,1637.6192662062176,6.3614077665191235
285.5,9.348,4.343257443082312,1648.4225715219868,6.37187339625745
286.0,9.341,4.335664335664336,1640.2046856276588,6.3639170767256665
286.5,9.374,4.328097731239093,1646.05376360419,6.369583042290544
287.0,9.389,4.320557491289199,1645.5771755102041,6.369121939931303
287.5,9.394,4.3130434782608695,1641.6054451248394,6.3652753620548586
288.0,9.365,4.305555555555555,1625.8256023341046,6.349923446607666
288.5,9.375,4.298093587521664,1623.6569959360706,6.347804926351754
289.0,9.315,4.290657439446367,1597.398981812957,6.321983395141346
289.5,9.335,4.2832469775474955,1598.729095307555,6.323299023089599
290.0,9.318,4.275862068965517,1587.4234323709863,6.312090205203082
290.5,9.32,4.268502581755594,1582.642855543146,6.307332563133335
291.0,9.292,4.261168384879725,1567.7463365619205,6.292438051526801
291.5,9.264,4.253859348198971,1552.9709966441983,6.277559478150348
292.0,9.318,4.2465753424657535,1565.7523768812157,6.290436315637882
292.5,9.251,4.239316239316239,1538.0448200756812,6.262420820251106
293.0,9.248,4.2320819112627985,1531.806019294342,6.256060542814332
293.5,9.181,4.2248722316865415,1504.5517630848967,6.22804559706447
294.0,9.255,4.217687074829932,1523.7073261141197,6.247775114194734
294.5,9.283,4.2105263157894735,1527.7400819944596,6.251904972844171
295.0,9.331,4.203389830508475,1538.3519884355069,6.262733469378573
295.5,9.329,4.196277495769881,1532.4933055230604,6.256762162495648
296.0,9.291,4.1891891891891895,1514.9031490321408,6.238730380194095
296.5,9.232,4.18212478920742,1490.683919276324,6.2136443456286505
297.0,9.152,4.175084175084175,1460.0324038408774,6.181453742475985
297.5,9.12,4.168067226890757,1444.9709194548407,6.165449951888645
298.0,9.117,4.1610738255033555,1439.1787960722488,6.159262136580493
298.5,9.154,4.1541038525963145,1446.0273777777775,6.166576575918494
299.0,9.169,4.147157190635451,1445.922244646033,6.16646448793281
299.5,9.184,4.140233722871453,1445.8174663459688,6.166352772170225
300.0,9.163,4.133333333333334,1434.419676604445,6.154163902053092
300.5,9.186,4.126455906821963,1436.8363278019717,6.156754336504466
301.0,9.156,4.119601328903655,1422.728224121147,6.14158528129683
301.5,9.151,4.112769485903814,1416.4650007849089,6.13481487622127
302.0,9.126,4.105960264900662,1404.0753446954077,6.121355517978305
302.5,9.142,4.099173553719008,1404.3489900023221,6.12165374944542
303.0,9.174,4.092409240924092,1409.5340933633952,6.127296498149703
303.5,9.134,4.085667215815486,1392.669274125863,6.108885688016977
304.0,9.097,4.078947368421052,1376.868906665512,6.091484565401632
304.5,9.059,4.072249589490969,1360.909656580952,6.073755759923071
305.0,9.096,4.065573770491803,1367.5543490631553,6.081156059203994
305.5,9.106,4.058919803600655,1366.0803145132475,6.0795167350363934
306.0,9.121,4.052287581699346,1366.109240052971,6.079548916875308
306.5,9.128,4.045676998368679,1363.746583016694,6.076918597538501
307.0,9.19,4.039087947882736,1377.8363628261304,6.0925543281157815
307.5,9.192,4.032520325203252,1373.9570645663293,6.088261396266449
308.0,9.21,4.025974025974026,1374.8686135941982,6.089270956298527
308.5,9.172,4.019448946515397,1359.1303973416623,6.071769572162569
309.0,9.211,4.0129449838187705,1366.280833774259,6.07973981729109
309.5,9.157,4.006462035541196,1345.948652419218,6.056993714661649
310.0,9.117,4.0,1329.9150240000004,6.038874067241343
310.5,9.023,3.993558776167472,1298.4405682009954,6.002822739125244
311.0,9.067,3.987138263665595,1306.9224665419094,6.012601985551343
311.5,9.026,3.980738362760835,1290.9752810802595,5.994175878490662
312.0,9.028,3.9743589743589745,1287.4112002629847,5.990034459042186
312.5,8.959,3.968,1263.753583673344,5.9623243789649685
313.0,9.0,3.961661341853035,1271.2756075901561,5.971176774864174
313.5,8.983,3.955342902711324,1262.4409673811908,5.960775561540279
314.0,8.952,3.949044585987261,1249.7530957685913,5.945741932993557
314.5,8.891,3.942766295707472,1228.8624993425856,5.920737718826525
315.0,8.863,3.9365079365079363,1217.261150056941,5.906713963048307
315.5,8.807,3.9302694136291603,1198.1208773576518,5.883356416692092
316.0,8.819,3.9240506329113924,1197.5892536612723,5.882703675321881
316.5,8.836,3.9178515007898893,1198.4153304892325,5.8837178604161045
317.0,8.867,3.911671924290221,1203.0350009095528,5.889379844489689
317.5,8.829,3.905511811023622,1188.9920333471389,5.872117486863454
318.0,8.816,3.89937106918239,1181.7681834737555,5.863177922075361
318.5,8.796,3.893249607535322,1172.721637794903,5.851924772917086
319.0,8.782,3.8871473354231973,1165.329846428396,5.842681567541271
319.5,8.764,3.8810641627543037,1156.9281361438668,5.832121939944218
320.0,8.73,3.875,1144.3843265625,5.816248791102389
320.5,8.684,3.8689547581903274,1128.8258136599159,5.796378448662993
321.0,8.637,3.8629283489096573,1113.163979526596,5.776167600540406
321.5,8.61,3.8569206842923793,1102.7770482937435,5.7626458412570685
322.0,8.61,3.8509316770186337,1099.354933837429,5.7581699991516775
322.5,8.577,3.8449612403100777,1087.5638226587346,5.742667721376498
323.0,8.604,3.8390092879256965,1091.0361211321876,5.7472459416065265
323.5,8.601,3.8330757341576507,1086.9077755862872,5.741801493389506
324.0,8.589,3.8271604938271606,1080.53429478738,5.733365632983952
324.5,8.507,3.8212634822804312,1056.7368049211657,5.701533867632431
325.0,8.482,3.8153846153846156,1047.3050185315976,5.688768962411139
325.5,8.44,3.8095238095238093,1033.7756009070295,5.670306953982381
326.0,8.458,3.803680981595092,1035.0075833339604,5.6719955696678115
326.5,8.412,3.797856049004594,1020.6469148108978,5.652217713802844
327.0,8.41,3.7920489296636086,1017.0442682527658,5.647223344128594
327.5,8.345,3.786259541984733,998.3284409067073,5.621061810535675
328.0,8.299,3.7804878048780486,984.3447109012491,5.601273809829593
328.5,8.244,3.774733637747336,968.3861929817975,5.578432047590885
329.0,8.248,3.768996960486322,966.382104289502,5.575543644353543
329.5,8.25,3.763277693474962,963.9187530654115,5.571987165380807
330.0,8.26,3.757575757575758,963.3311089072545,5.571137743547162
330.5,8.241,3.7518910741301057,956.0052361465802,5.560515654317161
331.0,8.199,3.7462235649546827,943.4288560491415,5.542137404383208
331.5,8.17,3.7405731523378583,933.943100082126,5.528153638838225
332.0,8.076,3.7349397590361444,909.8291005370882,5.492119217021413
332.5,8.029,3.7293233082706765,896.5674895955678,5.471995690980144
333.0,7.969,3.7237237237237237,880.5673063477893,5.44741721867844
333.5,7.95,3.7181409295352323,873.7475100530695,5.4368391910930285
334.0,7.933,3.712574850299401,867.4118387751442,5.426956447902005
334.5,7.88,3.7070254110612857,853.3035670221491,5.404753485512816
335.0,7.877,3.701492537313433,850.1106308790376,5.399690427831757
335.5,7.834,3.6959761549925485,838.3501680708775,5.380917876925054
336.0,7.831,3.6904761904761907,835.2168809665534,5.375883094675613
336.5,7.781,3.6849925705794946,822.1367537393277,5.354710747713554
337.0,7.757,3.679525222551929,814.6501681127771,5.342478558809133
337.5,7.695,3.674074074074074,799.3059840000001,5.317142089506355
338.0,7.653,3.668639053254438,788.2670921746437,5.298688014457562
338.5,7.617,3.6632200886262924,778.5633133089984,5.282305123245576
339.0,7.605,3.657817109144543,773.8243840551336,5.27424867777812
339.5,7.571,3.6524300441826214,764.66340339883,5.25856899398559
340.0,7.511,3.6470588235294117,750.3796717093426,5.233837867524119
340.5,7.478,3.6417033773861966,741.6176539070772,5.21849191396269
341.0,7.43,3.6363636363636362,729.9821487603305,5.197901674539623
341.5,7.41,3.6310395314787702,723.9329935754113,5.1870996643844896
342.0,7.335,3.625730994152047,707.280027700831,5.157008516776491
342.5,7.315,3.6204379562043796,701.3759655602324,5.146212553872512
343.0,7.232,3.6151603498542273,683.5526403318346,5.113202484759015
343.5,7.212,3.6098981077147014,677.7996240803949,5.1024097398031865
344.0,7.12,3.604651162790698,658.698193618172,5.066075036857406
344.5,7.086,3.5994194484760524,650.5298269054879,5.0502956558899905
345.0,7.012,3.5942028985507246,635.1685630279352,5.020214211031007
345.5,6.984,3.5890014471780027,628.2836068920019,5.006554314804861
346.0,6.962,3.5838150289017343,622.5284598082127,4.995049572448092
346.5,6.886,3.578643578643579,607.2547620055431,4.964125268618801
347.0,6.83,3.5734870317002883,595.6975694507886,4.940335659296134
347.5,6.737,3.568345323741007,577.9188328090679,4.903054399661824
348.0,6.715,3.5632183908045976,572.5018790461091,4.891524455039847
348.5,6.655,3.558106169296987,560.704349569481,4.86612747024484
349.0,6.59,3.5530085959885387,548.2306923588476,4.838835257328407
349.5,6.498,3.547925608011445,531.5063092412829,4.801501910950194
350.0,6.415,3.5428571428571427,516.5360094693877,4.7673292912729
350.5,6.338,3.537803138373752,502.7728244297428,4.735250393697554
351.0,6.285,3.532763532763533,492.9918065600118,4.712050382096822
351.5,6.231,3.52773826458037,483.179181873256,4.68842586873252
352.0,6.149,3.522727272727273,469.2097515625001,4.654164801551402
352.5,6.068,3.517730496453901,455.6341549209799,4.6201286402525925
353.0,5.968,3.5127478753541075,439.4926217400027,4.578654750045401
353.5,5.905,3.5077793493635077,429.0464747553761,4.551201715809959
354.0,5.791,3.5028248587570623,411.475494793961,4.503871529813228
354.5,5.707,3.4978843441466854,398.49844989088507,4.467933073809984
355.0,5.616,3.492957746478873,384.80513823130326,4.429046252211118
355.5,5.527,3.488045007032349,371.65766099054247,4.390720300117942
356.0,5.447,3.4831460674157304,359.9632173841687,4.355765906153989
356.5,5.359,3.4782608695652173,347.44960000000003,4.317406628984581
357.0,5.28,3.473389355742297,336.33710613657234,4.28246375329895
357.5,5.172,3.4685314685314683,321.8165023885764,4.2354745608071775
358.0,5.073,3.463687150837989,308.75005360631695,4.191811650849918
358.5,4.974,3.4588563458856347,295.98970931181185,4.147812853111281
359.0,4.874,3.4540389972144845,283.41675605868977,4.103045950562021
359.5,4.756,3.4492350486787204,269.1096508525789,4.0502545465088975
360.0,4.668,3.4444444444444446,258.5235217777778,4.0098212761501815
360.5,4.579,3.439667128987517,248.06992724005988,3.9686566724313455
361.0,4.495,3.434903047091413,238.3901784056292,3.929362441500644
361.5,4.385,3.4301521438450897,226.23821337633836,3.878300807152627
362.0,4.274,3.425414364640884,214.3360707670706,3.826254172748478
362.5,4.16,3.420689655172414,202.49486276337697,3.772276363883914
363.0,4.053,3.4159779614325068,191.6828807868315,3.7208814382731883
363.5,3.95,3.4112792297111416,181.56357740067247,3.6707700768856406
364.0,3.86,3.4065934065934065,172.90804975244535,3.62621711283957
364.5,3.766,3.401920438957476,164.13792406381896,3.5793340683867236
365.0,3.671,3.3972602739726026,155.53438289810467,3.531478793048802
365.5,3.572,3.3926128590971274,146.8559368546732,3.4811511217835602
366.0,3.485,3.387978142076503,139.40770073755564,3.4361466536131156
366.5,3.381,3.383356070941337,130.85362368185463,3.3821778303118037
367.0,3.299,3.3787465940054497,124.24412815894395,3.338635202238181
367.5,3.201,3.3741496598639458,116.65410654893796,3.2864347036301345
368.0,3.121,3.369565217391304,110.5949433010397,3.2429019478667964
368.5,3.021,3.364993215739484,103.34032819693314,3.1883607864777446
369.0,2.938,3.3604336043360434,97.47521929480543,3.1421257023771814
369.5,2.85,3.3558863328822732,91.47537633601345,3.0926163759371255
370.0,2.755,3.3513513513513513,85.24778991964935,3.038580749786481
370.5,2.659,3.3468286099865048,79.19606808904334,2.983155589967462
371.0,2.57,3.3423180592991915,73.78393240386221,2.930828792747697
371.5,2.5,3.3378196500672948,69.631500102346,2.888693324873417
372.0,2.422,3.3333333333333335,65.17871111111113,2.8413611761501447
372.5,2.343,3.3288590604026846,60.83246197846944,2.792761496892187
373.0,2.257,3.324396782841823,56.29746309108813,2.739190307166334
373.5,2.182,3.319946452476573,52.47732034716286,2.6914908804051114
374.0,2.109,3.3155080213903743,48.89374750207326,2.6443158693908524
374.5,2.041,3.3110814419225636,45.66944519243282,2.599599435098406
375.0,1.973,3.3066666666666666,42.56327189617778,2.554222647564878
375.5,1.906,3.3022636484687085,39.61587751511079,2.5088073887768583
376.0,1.837,3.297872340425532,36.70168412177456,2.46133936899439
376.5,1.772,3.2934926958831343,34.05970203929744,2.4157957399384813
377.0,1.709,3.2891246684350133,31.596923257041144,2.370888875159576
377.5,1.647,3.2847682119205297,29.268243311433704,2.325943517163113
378.0,1.586,3.2804232804232805,27.068621326390637,2.280954037842789
378.5,1.528,3.276089828269485,25.058686977204395,2.237379104576552
379.0,1.474,3.271767810026385,23.257333335189813,2.196038649928296
379.5,1.42,3.2674571805006587,21.527643786203672,2.154016990720114
380.0,1.368,3.263157894736842,19.927296000000005,2.112818023399081
380.5,1.317,3.2588699080157686,18.420677450135635,2.071697774497228
381.0,1.266,3.254593175853018,16.976995374790746,2.029855896518253
381.5,1.218,3.250327653997379,15.672881945964146,1.9896982390726508
382.0,1.176,3.2460732984293195,14.57240685288232,1.953812222029763
382.5,1.134,3.241830065359477,13.514705937716261,1.9173511139375716
383.0,1.092,3.2375979112271542,12.4994556265296,1.8802810744832945
383.5,1.051,3.2333767926988264,11.548300223869557,1.8434421632170797
384.0,1.01,3.2291666666666665,10.637110460069444,1.8059508114379343
384.5,0.971,3.224967490247074,9.805937974266142,1.7695884925682324
385.0,0.932,3.220779220779221,9.010600522179123,1.7325606003156815
385.5,0.896,3.216601815823606,8.306357613960008,1.697667584357418
386.0,0.861,3.2124352331606216,7.650240070874385,1.663101541022464
386.5,0.828,3.2082794307891334,7.05675512586,1.6298636043219696
387.0,0.793,3.204134366925065,6.456063820950933,1.5940133478021998
387.5,0.762,3.2,5.94579456,1.5615377036754508
388.0,0.733,3.195876288659794,5.487668498246361,1.530548045501228
388.5,0.706,3.191763191763192,5.07774311719331,1.5011278471152327
389.0,0.679,3.1876606683804627,4.684720835839044,1.4711973334091977
389.5,0.652,3.183568677792041,4.308475600033617,1.4407243934633753
390.0,0.627,3.1794871794871793,3.974195597633136,1.4119272153827411
390.5,0.601,3.175416133162612,3.6420863471598994,1.3814575983470248
391.0,0.576,3.1713554987212276,3.336835693120793,1.351554944226622
391.5,0.552,3.1673052362707534,3.0567364307629075,1.3222528088158694
392.0,0.53,3.163265306122449,2.810754893794253,1.2948091026266761
392.5,0.509,3.159235668789809,2.585827875207919,1.2680894903018527
393.0,0.488,3.1552162849872776,2.3708163497335697,1.2408648383582281
393.5,0.466,3.1512071156289707,2.156382160553725,1.211801351659215
394.0,0.447,3.1472081218274113,1.9790919528975242,1.1860868562027205
394.5,0.428,3.1432192648922688,1.8098262927676338,1.159869753624902
395.0,0.41,3.1392405063291138,1.6565970838006727,1.1344992761544348
395.5,0.392,3.1352718078381794,1.5105062573420003,1.1086146980229725
396.0,0.376,3.1313131313131315,1.3862089174574024,1.0850685404036637
396.5,0.361,3.1273644388398485,1.274592594406606,1.0625340288297525
397.0,0.346,3.123425692695214,1.1679239231262173,1.0395697618113677
397.5,0.33,3.119496855345912,1.0597342826628695,1.014610251408959
398.0,0.316,3.1155778894472363,0.969284775636979,0.9922311288532157
398.5,0.303,3.1116687578419073,0.8889390320351255,0.9709972366727404
399.0,0.291,3.107769423558897,0.8178686415286335,0.9509789178817999
399.5,0.279,3.1038798498122655,0.7499256523720987,0.9305817954901235
400.0,0.267,3.1,0.6850872900000001,0.9097801932335086
400.5,0.255,3.0961298377028714,0.6233309486737084,0.8885455017129017
401.0,0.244,3.092269326683292,0.569290947195602,0.8686274896126206
401.5,0.233,3.088418430884184,0.5178263107369779,0.8482932832434871
402.0,0.223,3.084577114427861,0.47315233781342053,0.8293736772513419
402.5,0.213,3.080745341614907,0.4305968096909842,0.810060959288852
403.0,0.203,3.076923076923077,0.39014437869822494,0.790326125479466
403.5,0.193,3.0731102850061958,0.35177981018013077,0.7701365365999693
404.0,0.184,3.0693069306930694,0.31894535829820597,0.7515001498652709
404.5,0.176,3.065512978986403,0.29109292767857275,0.7345272522524994
405.0,0.168,3.0617283950617282,0.264576877914952,0.7171961868069088
405.5,0.161,3.057953144266338,0.24238927812856823,0.7016626370463803
406.0,0.153,3.0541871921182264,0.21836054259991747,0.6835866005080034
406.5,0.146,3.050430504305043,0.19834807139215302,0.6673551180807235
407.0,0.139,3.0466830466830466,0.1793428852573816,0.6507602811242735
407.5,0.133,3.042944785276074,0.16379152485979906,0.6361695186361241
408.0,0.127,3.0392156862745097,0.14898086312956554,0.6212732025098642
408.5,0.12,3.035495716034272,0.1326849730856988,0.6035391337138899
409.0,0.114,3.031784841075795,0.11945558431621049,0.5878975011706042
409.5,0.109,3.028083028083028,0.10894029676740301,0.5745093994540473
410.0,0.103,3.024390243902439,0.0970398477096966,0.5581327755310121
410.5,0.098,3.020706455542022,0.08763330657927336,0.5440856850194812
411.0,0.093,3.017031630170316,0.07872734828706908,0.5297017477843917
411.5,0.088,3.0133657351154315,0.07031840892682877,0.5149526043143757
412.0,0.084,3.0097087378640777,0.06391569422188709,0.5028076510760179
412.5,0.08,3.006060606060606,0.057832962350780524,0.49039254529901705
413.0,0.076,3.002421307506053,0.052067946696058486,0.47768610966874475
413.5,0.072,2.9987908101571947,0.04661839693886353,0.46466432866244206
414.0,0.068,2.995169082125604,0.041482078928329724,0.45129978682084604
414.5,0.064,2.9915560916767188,0.03665677455215856,0.437560955601971
415.0,0.061,2.9879518072289155,0.03322055218464218,0.42692512252263143
415.5,0.058,2.984356197352587,0.029961068754244737,0.4160440595014548
416.0,0.055,2.980769230769231,0.02687708025147929,0.40489789786106284
416.5,0.052,2.9771908763505404,0.02396735155046412,0.3934640079730649
417.0,0.049,2.973621103117506,0.02123065633823876,0.3817164314681224
417.5,0.046,2.970059880239521,0.018665777044712967,0.36962515402907575
418.0,0.044,2.9665071770334928,0.017037119113573407,0.3612842589838003
418.5,0.041,2.962962962962963,0.014757750342935529,0.34854193647462495
419.0,0.039,2.9594272076372317,0.013321236493298628,0.33973174873398576
419.5,0.037,2.9558998808104886,0.011961424080259006,0.3307087776125516
420.0,0.035,2.9523809523809526,0.01067777777777778,0.32145502536643183
420.5,0.033,2.948870392390012,0.009469766047723609,0.31194987249375566
421.0,0.031,2.9453681710213777,0.00833686111001405,0.3021695108737192
421.5,0.029,2.941874258600237,0.00727853891302176,0.2920862090195408
422.0,0.027,2.938388625592417,0.006294279104242941,0.281667344381622
422.5,0.025,2.93491124260355,0.005383565001225447,0.2708741055639847
423.0,0.024,2.9314420803782504,0.004949771138272722,0.2652444343036777
423.5,0.022,2.927981109799292,0.0041493675156012814,0.2538022545518152
424.0,0.021,2.9245283018867925,0.0037718138127447497,0.24782068989417055
424.5,0.02,2.9210836277974086,0.0034130918242344277,0.2417057561498033
425.0,0.019,2.9176470588235293,0.003073071833910034,0.23544700914992964
425.5,0.017,2.9142185663924796,0.002454381587432219,0.22257968377341217
426.0,0.016,2.9107981220657275,0.00216902290109987,0.21580725185463914
426.5,0.015,2.9073856975381007,0.0019019006087060493,0.20883195508128422
427.0,0.014,2.9039812646370025,0.0016528890083310941,0.20163268015110555
427.5,0.013,2.9005847953216373,0.0014218632741698296,0.19418445442202958
428.0,0.012,2.897196261682243,0.0012086994497336012,0.18645738156529743
428.5,0.011,2.893815635939323,0.001013274441111636,0.17841516750358574
429.0,0.01,2.8904428904428903,0.000835466010291185,0.17001302569047144
429.5,0.009,2.887077997671711,0.0006751527685358477,0.16119460902600125
430.0,0.009,2.883720930232558,0.0006735835586803675,0.16110086397065976
430.5,0.008,2.8803716608594656,0.0005309786178996683,0.15179912149573108
431.0,0.008,2.8770301624129933,0.0005297473635477846,0.15171104540969965
431.5,0.007,2.87369640787949,0.00040464842118831477,0.14183044403496886
432.0,0.006,2.8703703703703702,0.00029660493827160495,0.13123346456686352
432.5,0.006,2.867052023121387,0.0002959195429182399,0.13115758513608095
433.0,0.005,2.863741339491917,0.000205025361487874,0.11966079849917259
433.5,0.005,2.8604382929642447,0.00020455268069640507,0.11959177005472084
434.0,0.004,2.857142857142857,0.00013061224489795917,0.10690449676496976
434.5,0.004,2.85385500575374,0.0001303118143018509,0.1068429689919508
435.0,0.004,2.8505747126436782,0.0001300124190778174,0.10678154733180595
435.5,0.003,2.847301951779564,7.296415564146941e-05,0.09242243155932812
436.0,0.003,2.8440366972477062,7.279690261762478e-05,0.09236942184372011
436.5,0.003,2.84077892325315,7.263022401719396e-05,0.09231650323620068
437.0,0.002,2.8375286041189933,3.220627431677393e-05,0.07533297557005157
437.5,0.002,2.834285714285714,3.213270204081632e-05,0.07528991584914561
438.0,0.002,2.8310502283105023,3.205938158086779e-05,0.07524692988169687
438.5,0.002,2.827822120866591,3.19863117890497e-05,0.07520401745740171
439.0,0.001,2.8246013667425967,7.978372881004145e-06,0.05314697890513248
439.5,0.001,2.821387940841866,7.960229912727906e-06,0.05311673880088899
440.0,0.001,2.8181818181818183,7.942148760330578e-06,0.053086550256932485
440.5,0.001,2.814982973893303,7.924129143309184e-06,0.05305641312690958
441.0,0.001,2.811791383219955,7.906170782749987e-06,0.05302632726504783
441.5,0.001,2.808607021517554,7.888273401317707e-06,0.052996292526152754
442.0,0.001,2.8054298642533935,7.870436723244815e-06,0.05296630876560489
442.5,0.0,2.8022598870056497,0.0,0.0
443.0,0.0,2.799097065462754,0.0,0.0
443.5,0.0,2.7959413754227733,0.0,0.0
444.0,0.0,2.7927927927927927,0.0,0.0
444.5,0.0,2.7896512935883013,0.0,0.0
445.0,0.0,2.7865168539325844,0.0,0.0
445.5,0.0,2.783389450056117,0.0,0.0
446.0,0.0,2.780269058295964,0.0,0.0
446.5,0.0,2.777155655095185,0.0,0.0
447.0,0.0,2.7740492170022373,0.0,0.0
447.5,0.0,2.7709497206703912,0.0,0.0
448.0,0.0,2.767857142857143,0.0,0.0
448.5,0.0,2.7647714604236344,0.0,0.0
449.0,0.0,2.7616926503340755,0.0,0.0
449.5,0.0,2.7586206896551726,0.0,0.0
450.0,0.0,2.7555555555555555,0.0,0.0
450.5,0.0,2.7524972253052162,0.0,0.0
451.0,0.0,2.7494456762749446,0.0,0.0
451.5,0.0,2.7464008859357696,0.0,0.0
452.0,0.0,2.743362831858407,0.0,0.0
452.5,0.0,2.7403314917127073,0.0,0.0
453.0,0.0,2.7373068432671084,0.0,0.0
453.5,0.0,2.7342888643880925,0.0,0.0
454.0,0.0,2.7312775330396475,0.0,0.0
454.5,0.0,2.728272827282728,0.0,0.0
455.0,0.0,2.7252747252747254,0.0,0.0
455.5,0.0,2.722283205268935,0.0,0.0
456.0,0.001,2.719298245614035,7.394582948599569e-06,0.05214689104456789
456.5,0.001,2.7163198247535596,7.378393390349209e-06,0.05211832522974582
457.0,0.001,2.713347921225383,7.362256941618107e-06,0.05208980630819607
457.5,0.001,2.710382513661202,7.346173370360416e-06,0.052061334151759904
458.0,0.001,2.7074235807860263,7.33014244579623e-06,0.052032908632768424
458.5,0.001,2.704471101417666,7.3141639384032856e-06,0.05200452962404012
459.0,0.001,2.701525054466231,7.298237619908771e-06,0.051976196998878545
459.5,0.001,2.6985854189336234,7.282363263281159e-06,0.051947910631069884
460.0,0.001,2.6956521739130435,7.266540642722117e-06,0.05191967039488062
460.5,0.001,2.6927252985884906,7.250769533658476e-06,0.05189147616505519
461.0,0.001,2.6898047722342735,7.235049712734273e-06,0.051863327816813624
461.5,0.001,2.6868905742145177,7.219380957802821e-06,0.05183522522584925
462.0,0.001,2.683982683982684,7.203763047918892e-06,0.05180716826832638
462.5,0.001,2.6810810810810812,7.1881957633308985e-06,0.051779156820878046
463.0,0.001,2.678185745140389,7.172678885473181e-06,0.05175119076060365
463.5,0.001,2.67529665587918,7.157212196958324e-06,0.051723269965066786
464.0,0.001,2.6724137931034484,7.141795481569562e-06,0.05169539431229293
464.5,0.002,2.669537136706136,2.850571409701278e-05,0.07306896929211655
465.0,0.002,2.6666666666666665,2.8444444444444444e-05,0.07302967433402215
465.5,0.002,2.6638023630504835,2.838337211757336e-05,0.07299044270382916
466.0,0.002,2.6609442060085837,2.8322496269962605e-05,0.07295127423162098
466.5,0.002,2.658092175777063,2.8261816059708963e-05,0.07291216874811862
467.0,0.002,2.6552462526766596,2.8201330649413773e-05,0.07287312608467761
467.5,0.002,2.6524064171122994,2.8141039206154023e-05,0.07283414607328488
468.0,0.002,2.6495726495726495,2.8080940901453717e-05,0.07279522854655585
468.5,0.002,2.6467449306296693,2.802103491125541e-05,0.0727563733377313
469.0,0.002,2.6439232409381663,2.796132041589191e-05,0.07271758028067445
469.5,0.002,2.6411075612353567,2.79017966000583e-05,0.07267884920986789
470.0,0.002,2.6382978723404253,2.7842462652784066e-05,0.0726401799604107
470.5,0.002,2.6354941551540914,2.778331776740551e-05,0.07260157236801544
471.0,0.002,2.632696390658174,2.772436114153831e-05,0.07256302626900527
471.5,0.002,2.6299045599151643,2.7665591977050296e-05,0.07252454150031097
472.0,0.002,2.6271186440677967,2.7607009480034476e-05,0.07248611789946813
472.5,0.002,2.624338624338624,2.7548612860782168e-05,0.07244775530461416
473.0,0.003,2.6215644820295982,6.185340300095205e-05,0.08868310688112362
473.5,0.003,2.6187961985216472,6.172284176452288e-05,0.08863627133157702
474.0,0.003,2.6160337552742616,6.15926934786092e-05,0.08858950990846932
474.5,0.003,2.613277133825079,6.146295640355718e-05,0.08854282241647392
475.0,0.003,2.610526315789474,6.133362880886428e-05,0.08849620866098401
475.5,0.003,2.6077812828601474,6.120470897312144e-05,0.08844966844810918
476.0,0.003,2.6050420168067228,6.107619518395593e-05,0.08840320158467208
476.5,0.003,2.602308499475341,6.0948085737974405e-05,0.08835680787820496
477.0,0.003,2.59958071278826,6.0820378940706454e-05,0.08831048713694642
477.5,0.003,2.5968586387434556,6.069307310654862e-05,0.08826423916983801
478.0,0.003,2.594142259414226,6.056616655870871e-05,0.08821806378652094
478.5,0.003,2.5914315569487982,6.043965762915066e-05,0.08817196079733282
479.0,0.003,2.5887265135699375,6.0313544658539675e-05,0.08812593001330433
479.5,0.003,2.586027111574557,6.0187825996187814e-05,0.08807997124615602
480.0,0.003,2.5833333333333335,6.006250000000001e-05,0.08803408430829505
480.5,0.003,2.5806451612903225,5.9937565036420395e-05,0.08798826901281197
481.0,0.003,2.577962577962578,5.9813019480379154e-05,0.08794252517347756
481.5,0.003,2.5752855659397715,5.968886171523957e-05,0.08789685260473958
482.0,0.003,2.5726141078838176,5.956509013274566e-05,0.08785125112171968
482.5,0.003,2.569948186528497,5.944170313297001e-05,0.0878057205402102
483.0,0.003,2.567287784679089,5.931869912426218e-05,0.08776026067667111
483.5,0.003,2.5646328852119957,5.919607652319726e-05,0.08771487134822685
484.0,0.004,2.56198347107438,0.00010502014889693324,0.10123207932418221
484.5,0.004,2.559339525283798,0.00010480350089087831,0.10117983050556663
485.0,0.004,2.556701030927835,0.00010458752258475925,0.10112766250493155
485.5,0.004,2.554067971163749,0.00010437221122119214,0.10107557511414415
486.0,0.004,2.551440329218107,0.00010415756405696964,0.10102356812582115
486.5,0.004,2.5488180883864335,0.00010394357836297397,0.10097164133332553
487.0,0.004,2.546201232032854,0.00010373025142409001,0.10091979453076298
487.5,0.004,2.5435897435897434,0.00010351758053911898,0.10086802751297842
488.0,0.004,2.540983606557377,0.00010330556302069335,0.10081634007555278
488.5,0.004,2.5383828045035823,0.00010309419619519155,0.10076473201479935
489.0,0.004,2.5357873210633946,0.00010288347740265386,0.10071320312776065
489.5,0.004,2.533197139938713,0.0001026734039966988,0.10066175321220494
490.0,0.004,2.5306122448979593,0.00010246397334443984,0.10061038206662291
490.5,0.004,2.5280326197757392,0.00010225518282640301,0.1005590894902244
491.0,0.004,2.525458248472505,0.00010204702983644501,0.10050787528293502
491.5,0.004,2.522889114954222,0.00010183951178167194,0.10045673924539303
492.0,0.004,2.5203252032520327,0.00010163262608235841,0.1004056811789459
492.5,0.004,2.517766497461929,0.00010142637017186736,0.10035470088564719
493.0,0.004,2.5152129817444218,0.00010122074149657063,0.10030379816825326
493.5,0.004,2.512664640324215,0.00010101573751576987,0.10025297283022015
494.0,0.004,2.5101214574898787,0.0001008113557016178,0.10020222467570027
494.5,0.004,2.507583417593529,0.00010060759353904069,0.10015155350953932
495.0,0.004,2.505050505050505,0.00010040444852566067,0.10010095913727311
495.5,0.005,2.5025227043390514,0.00015656549714331098,0.11185979403563756
496.0,0.004,2.5,0.0001,0.1
496.5,0.004,2.497482376636455,9.979869154575482e-05,0.09994963484948717
497.0,0.004,2.494969818913481,9.959799035662669e-05,0.09989934572185107
497.5,0.004,2.492462311557789,9.939789399257596e-05,0.09984913242603141
498.0,0.005,2.4899598393574296,0.00015499750004032193,0.11157866819776596
498.5,0.004,2.4874623871614845,9.899950604068977e-05,0.09974893256895503
499.0,0.004,2.4849699398797593,9.880120963369626e-05,0.09969894562892347
499.5,0.004,2.4824824824824825,9.860350841331823e-05,0.09964903376315262
500.0,0.005,2.48,0.00015376,0.11135528725660043
500.5,0.005,2.4775224775224776,0.00015345294066572787,0.11129965133643675
501.0,0.005,2.475049900199601,0.00015314680021195136,0.11124409872437281
501.5,0.005,2.472582253240279,0.0001528415749759694,0.1111886292127095
502.0,0.005,2.4701195219123506,0.0001525372613133125,0.11113324259447194
502.5,0.005,2.4676616915422884,0.00015223385559763372,0.11107793866340626
503.0,0.005,2.4652087475149105,0.00015193135422060083,0.11102271721397632
503.5,0.005,2.4627606752730884,0.00015162975359178895,0.11096757804136054
504.0,0.005,2.4603174603174605,0.00015132905013857397,0.11091252094144873
504.5,0.005,2.4578790882061448,0.00015102924030602674,0.11085754571083885
505.0,0.005,2.4554455445544554,0.00015073032055680816,0.11080265214683391
505.5,0.005,2.453016815034619,0.00015043228737106467,0.11074784004743883
506.0,0.005,2.450592885375494,0.00015013513724632474,0.11069310921135729
506.5,0.005,2.4481737413622904,0.00014983886669739586,0.11063845943798861
507.0,0.005,2.445759368836292,0.00014954347225626247,0.11058389052742475
507.5,0.005,2.4433497536945814,0.0001492489504719843,0.11052940228044711
508.0,0.005,2.440944881889764,0.00014895529791059586,0.1104749944985236
508.5,0.005,2.438544739429695,0.00014866251115500597,0.11042066698380551
509.0,0.005,2.43614931237721,0.00014837058680489885,0.11036641953912454
509.5,0.005,2.433758586849853,0.0001480795214766348,0.11031225196798977
510.0,0.005,2.4313725490196076,0.0001477893118031526,0.11025816407458469
510.5,0.005,2.4289911851126345,0.00014749995443387202,0.11020415566376421
511.0,0.005,2.426614481409002,0.00014721144603459696,0.1101502265410517
511.5,0.005,2.4242424242424243,0.00014692378328741966,0.11009637651263605
512.0,0.005,2.421875,0.00014663696289062502,0.11004260538536881
512.5,0.005,2.419512195121951,0.00014635098155859607,0.10998891296676114
513.0,0.005,2.4171539961013644,0.0001460658360217199,0.10993529906498105
513.5,0.005,2.4148003894839336,0.00014578152302629393,0.10988176348885045
514.0,0.005,2.412451361867704,0.0001454980393344335,0.10982830604784233
514.5,0.005,2.4101068999028183,0.00014521538172397933,0.10977492655207788
515.0,0.005,2.407766990291262,0.00014493354698840604,0.10972162481232361
515.5,0.005,2.405431619786615,0.00014465253193673145,0.1096684006399887
516.0,0.005,2.4031007751937983,0.00014437233339342588,0.109615253847122
516.5,0.005,2.4007744433688285,0.0001440929481983227,0.10956218424640932
517.0,0.005,2.3984526112185685,0.00014381437320652921,0.10950919165117073
517.5,0.005,2.396135265700483,0.0001435366052883381,0.10945627587535771
518.0,0.005,2.393822393822394,0.00014325964132913944,0.10940343673355042
518.5,0.005,2.391513982642237,0.0001429834782293334,0.10935067404095498
519.0,0.005,2.3892100192678227,0.00014270811290424375,0.10929798761340079
519.5,0.005,2.386910490856593,0.00014243354228403153,0.1092453772673378
520.0,0.005,2.3846153846153846,0.00014215976331360947,0.10919284281983377
520.5,0.005,2.382324687800192,0.00014188677295255705,0.10914038408857173
521.0,0.005,2.380038387715931,0.00014161456817503618,0.1090880008918472
521.5,0.005,2.377756471716203,0.00014134314596970718,0.1090356930485656
522.0,0.005,2.375478927203065,0.00014107250333964566,0.10898346037823962
522.5,0.005,2.373205741626794,0.00014080263730225953,0.1089313027009866
523.0,0.005,2.3709369024856595,0.00014053354488920735,0.10887921983752592
523.5,0.005,2.3686723973256925,0.0001402652231463161,0.10882721160917642
524.0,0.005,2.366412213740458,0.00013999766913350042,0.10877527783785382
524.5,0.005,2.364156339370829,0.000139730879924682,0.10872341834606813
525.0,0.005,2.361904761904762,0.00013946485260770975,0.10867163295692124
525.5,0.005,2.3596574690770695,0.00013919958428428004,0.10861992149410414
526.0,0.005,2.3574144486692017,0.00013893507206985792,0.10856828378189465
526.5,0.005,2.355175688509022,0.00013867131309359864,0.10851671964515473
527.0,0.005,2.3529411764705883,0.00013840830449826988,0.10846522890932808
527.5,0.005,2.3507109004739335,0.0001381460434401743,0.10841381140043767
528.0,0.005,2.3484848484848486,0.00013788452708907257,0.10836246694508317
528.5,0.005,2.346263008514664,0.00013762375262810707,0.10831119537043861
529.0,0.005,2.344045368620038,0.00013736371725372627,0.10825999650424985
529.5,0.005,2.3418319169027386,0.00013710441817560887,0.10820887017483222
530.0,0.005,2.339622641509434,0.00013684585261658955,0.10815781621106803
530.5,0.005,2.33741753063148,0.00013658801781258416,0.10810683444240424
531.0,0.005,2.335216572504708,0.00013633091101251593,0.10805592469885
531.5,0.005,2.3330197554092194,0.00013607452947824234,0.1080050868109743
532.0,0.005,2.330827067669173,0.00013581887048448192,0.10795432060990365
532.5,0.005,2.328638497652582,0.00013556393131874188,0.10790362592731957
533.0,0.005,2.326454033771107,0.00013530970928124635,0.10785300259545644
533.5,0.005,2.32427366447985,0.0001350562016848648,0.10780245044709907
534.0,0.005,2.3220973782771535,0.00013480340585504073,0.10775196931558034
534.5,0.005,2.3199251637043967,0.0001345513191297218,0.10770155903477899
535.0,0.005,2.317757009345794,0.00013429993885928897,0.10765121943911722
535.5,0.005,2.315592903828198,0.00013404926240648767,0.10760095036355855
536.0,0.005,2.3134328358208953,0.00013379928714635775,0.10755075164360535
536.5,0.005,2.3112767940354146,0.00013355001046616563,0.10750062311529675
537.0,0.005,2.3091247672253257,0.00013330142976533538,0.10745056461520633
537.5,0.005,2.3069767441860467,0.0001330535424553813,0.10740057598043985
538.0,0.005,2.3048327137546467,0.00013280634595984025,0.10735065704863307
538.5,0.005,2.3026926648096566,0.00013255983771420495,0.10730080765794954
539.0,0.005,2.300556586270872,0.00013231401516585722,0.10725102764707833
539.5,0.005,2.298424467099166,0.00013206887577400212,0.10720131685523192
540.0,0.005,2.2962962962962963,0.0001318244170096022,0.10715167512214395
540.5,0.005,2.294172062904718,0.00013158063635531226,0.10710210228806712
541.0,0.005,2.292051756007394,0.00013133753130541447,0.10705259819377094
541.5,0.006,2.2899353647276084,0.00018877694308668596,0.1172160918490531
542.0,0.006,2.2878228782287824,0.00018842880679729307,0.11716201291106557
542.5,0.006,2.2857142857142856,0.0001880816326530612,0.11710800875382398
543.0,0.006,2.283609576427256,0.00018773541711180976,0.11705407920514148
543.5,0.005,2.281508739650414,0.00013013205322753052,0.10680610328184467
544.0,0.005,2.2794117647058822,0.0001298929498269896,0.10675700831106785
544.5,0.005,2.277318640955005,0.00012965450481102874,0.10670798097975158
545.0,0.005,2.2752293577981653,0.00012941671576466627,0.10665902113272382
545.5,0.005,2.2731439046746105,0.00012917958028398337,0.10661012861531052
546.0,0.005,2.271062271062271,0.000128943095976063,0.10656130327333349
546.5,0.005,2.268984446477585,0.00012870726045892977,0.10651254495310833
547.0,0.005,2.26691042047532,0.00012847207136148982,0.10646385350144245
547.5,0.005,2.2648401826484017,0.00012823752632347115,0.10641522876563302
548.0,0.005,2.2627737226277373,0.0001280036229953647,0.10636667059346498
548.5,0.005,2.260711030082042,0.00012777035903836518,0.106318178833209
549.0,0.006,2.2586520947176685,0.00018365433425901042,0.1164126821626665
549.5,0.006,2.256596906278435,0.00018332026550731454,0.11635970710546933
550.0,0.006,2.2545454545454544,0.0001829871074380165,0.11630680430341436
550.5,0.006,2.2524977293369663,0.00018265485674405483,0.11625397359239725
551.0,0.006,2.250453720508167,0.00018232351013336586,0.11620121480883495
551.5,0.005,2.2484134179510424,0.00012638407245055722,0.10602861448569066
552.0,0.005,2.246376811594203,0.00012615521949170346,0.10598058340078628
552.5,0.006,2.244343891402715,0.00018133486210356053,0.11604336839482164
553.0,0.005,2.2423146473779387,0.00012569937444614125,0.10588471672951529
553.5,0.006,2.2402890695573623,0.0001806802241464149,0.1159384941136643
554.0,0.005,2.2382671480144403,0.00012524599564701743,0.105789109742318
554.5,0.006,2.236248872858431,0.00018002912476898172,0.11583390366015724
555.0,0.006,2.234234234234234,0.00017970489408327244,0.11578171446910519
555.5,0.006,2.232223222322232,0.00017938153851388737,0.1157295957563725
556.0,0.006,2.2302158273381294,0.00017905905491434192,0.11567754736347403
556.5,0.006,2.2282120395327945,0.00017873744015228026,0.11562556913242315
557.0,0.006,2.2262118491921004,0.00017841669110939924,0.11557366090572974
557.5,0.006,2.2242152466367715,0.00017809680468137309,0.11552182252639814
558.0,0.006,2.2222222222222223,0.0001777777777777778,0.11547005383792516
558.5,0.005,2.2202327663384063,0.0001232358384180673,0.10536206068453688
559.0,0.005,2.21824686940966,0.00012301547934114393,0.10531492936449371
559.5,0.006,2.2162645218945487,0.000176825823516305,0.11531516435997172
560.0,0.006,2.2142857142857144,0.00017651020408163267,0.11526367287968177
560.5,0.006,2.2123104371097235,0.00017619542892520617,0.11521225031505261
561.0,0.006,2.2103386809269163,0.0001758814950384627,0.11516089651249463
561.5,0.006,2.2083704363312555,0.0001755683994262284,0.11510961131889696
562.0,0.006,2.206405693950178,0.0001752561391066476,0.11505839458162567
562.5,0.006,2.2044444444444444,0.0001749447111111111,0.11500724614852173
563.0,0.006,2.202486678507993,0.00017463411248418615,0.11495616586789922
563.5,0.006,2.2005323868677906,0.000174324340283546,0.11490515358854338
564.0,0.006,2.198581560283688,0.0001740153915799004,0.11485420915970876
564.5,0.006,2.1966341895482726,0.00017370726345692627,0.11480333243111733
565.0,0.006,2.1946902654867255,0.00017339995301119898,0.11475252325295664
565.5,0.006,2.1927497789566757,0.00017309345735212381,0.11470178147587794
566.0,0.006,2.1908127208480566,0.00017278777360186793,0.11465110695099433
566.5,0.006,2.1888790820829658,0.0001724828988952932,0.114600499529879
567.0,0.006,2.18694885361552,0.00017217883037988857,0.11454995906456326
567.5,0.006,2.185022026431718,0.0001718755652157038,0.11449948540753495
568.0,0.006,2.183098591549296,0.00017157310057528275,0.11444907841173636
568.5,0.006,2.1811785400175903,0.00017127143364359761,0.1143987379305626
569.0,0.006,2.1792618629173988,0.00017097056161798362,0.1143484638178598
569.5,0.006,2.177348551360843,0.00017067048170807386,0.11429825592792332
570.0,0.006,2.175438596491228,0.0001703711911357341,0.11424811411549589
570.5,0.006,2.17353198948291,0.00017007268713499933,0.11419803823576594
571.0,0.006,2.171628721541156,0.0001697749669520091,0.11414802814436584
571.5,0.006,2.1697287839020123,0.0001694780278449446,0.11409808369737011
572.0,0.006,2.167832167832168,0.00016918186708396503,0.1140482047512937
572.5,0.006,2.165938864628821,0.00016888648195114513,0.11399839116309023
573.0,0.006,2.1640488656195465,0.00016859186974041285,0.11394864279015034
573.5,0.006,2.1621621621621623,0.00016829802775748725,0.11389895949029988
574.0,0.006,2.1602787456445993,0.00016800495331981694,0.11384934112179831
574.5,0.006,2.158398607484769,0.00016771264375651886,0.11379978754333689
575.0,0.006,2.1565217391304348,0.0001674210964083176,0.1137502986140371
575.5,0.006,2.154648132059079,0.00016713030862748447,0.11370087419344882
576.0,0.006,2.1527777777777777,0.00016684027777777777,0.1136515141415488
576.5,0.006,2.1509106678230703,0.00016655100123438312,0.11360221831873893
577.0,0.006,2.149046793760832,0.00016626247638385362,0.11355298658584455
577.5,0.006,2.1471861471861473,0.00016597470062405128,0.11350381880411285
578.0,0.006,2.1453287197231834,0.00016568767136408808,0.11345471483521123
578.5,0.006,2.143474503025065,0.0001654013860242678,0.11340567454122563
579.0,0.006,2.1416234887737478,0.00016511584203602778,0.11335669778465887
579.5,0.006,2.1397756686798965,0.00016483103684188194,0.11330778442842919
580.0,0.006,2.1379310344827585,0.00016454696789536263,0.11325893433586841
580.5,0.006,2.136089577950043,0.00016426363266096455,0.11321014737072052
581.0,0.006,2.134251290877797,0.00016398102861408753,0.11316142339713998
581.5,0.006,2.1324161650902838,0.0001636991532409807,0.1131127622796902
582.0,0.006,2.1305841924398625,0.00016341800403868638,0.11306416388334181
582.5,0.006,2.128755364806867,0.0001631375785149846,0.11301562807347133
583.0,0.006,2.1269296740994856,0.00016285787418833799,0.1129671547158594
583.5,0.006,2.125107112253642,0.00016257888858783645,0.11291874367668926
584.0,0.006,2.1232876712328768,0.00016230061925314322,0.11287039482254531
584.5,0.006,2.121471343028229,0.00016202306373443994,0.11282210802041139
585.0,0.006,2.1196581196581197,0.00016174621959237344,0.11277388313766941
585.5,0.006,2.1178479931682324,0.00016147008439800156,0.11272572004209773
586.0,0.006,2.1160409556313993,0.00016119465573274005,0.11267761860186963
586.5,0.006,2.114236999147485,0.00016091993118830987,0.11262957868555183
587.0,0.006,2.1124361158432707,0.00016064590836668415,0.11258160016210297
587.5,0.006,2.1106382978723404,0.00016037258488003624,0.11253368290087214
588.0,0.006,2.108843537414966,0.00016009995835068725,0.1124858267715973
588.5,0.006,2.1070518266779947,0.00015982802641105467,0.11243803164440389
589.0,0.006,2.1052631578947367,0.0001595567867036011,0.11239029738980327
589.5,0.006,2.1034775233248517,0.00015928623688078267,0.11234262387869134
590.0,0.006,2.1016949152542375,0.0001590163746049986,0.11229501098234697
590.5,0.006,2.0999153259949197,0.00015874719754854059,0.11224745857243057
591.0,0.006,2.0981387478849407,0.00015847870339354275,0.11219996652098273
591.5,0.006,2.09636517328825,0.0001582108898319315,0.11215253470042262
592.0,0.006,2.0945945945945947,0.00015794375456537623,0.1121051629835467
592.5,0.006,2.0928270042194095,0.00015767729530523957,0.11205785124352714
593.0,0.006,2.09106239460371,0.0001574115097725289,0.11201059935391053
593.5,0.006,2.0893007582139846,0.00015714639569784712,0.11196340718861635
594.0,0.006,2.0875420875420874,0.00015688195082134475,0.11191627462193568
594.5,0.006,2.08578637510513,0.00015661817289267115,0.11186920152852965
595.0,0.006,2.0840336134453783,0.00015635505967092722,0.11182218778342816
595.5,0.006,2.082283795130143,0.00015609260892461728,0.11177523326202839
596.0,0.006,2.0805369127516777,0.00015583081843160217,0.11172833784009349
596.5,0.006,2.0787929589270746,0.00015556968597905217,0.11168150139375119
597.0,0.006,2.0770519262981573,0.0001553092093633999,0.11163472379949235
597.5,0.006,2.075313807531381,0.00015504938639029428,0.11158800493416972
598.0,0.006,2.0735785953177257,0.00015479021487455397,0.11154134467499643
598.5,0.006,2.071846282372598,0.00015453169264012157,0.11149474289954477
599.0,0.006,2.0701168614357264,0.00015427381752001806,0.11144819948574476
599.5,0.006,2.0683903252710594,0.00015401658735629707,0.11140171431188281
600.0,0.006,2.066666666666667,0.00015376000000000005,0.11135528725660045
600.5,0.006,2.0649458784346377,0.00015350405331111114,0.11130891819889288
601.0,0.006,2.0632279534109816,0.00015324874515851286,0.11126260701810779
601.5,0.006,2.061512884455528,0.00015299407341994142,0.11121635359394394
602.0,0.006,2.0598006644518274,0.00015274003598194283,0.11117015780644986
602.5,0.006,2.0580912863070537,0.00015248663073982885,0.11112401953602256
603.0,0.006,2.056384742951907,0.00015223385559763372,0.11107793866340626
603.5,0.006,2.054681027340514,0.0001519817084680705,0.11103191506969104
604.0,0.006,2.052980132450331,0.00015173018727248803,0.11098594863631156
604.5,0.006,2.051282051282051,0.0001514792899408284,0.11094003924504582
605.0,0.006,2.049586776859504,0.0001512290144115839,0.11089418677801387
605.5,0.006,2.047894302229562,0.00015097935863175502,0.11084839111767646
606.0,0.006,2.046204620462046,0.00015073032055680814,0.11080265214683391
606.5,0.006,2.044517724649629,0.0001504818981506339,0.11075696974862473
607.0,0.006,2.042833607907743,0.00015023408938550522,0.11071134380652445
607.5,0.006,2.0411522633744856,0.00014998689224203631,0.11066577420434429
608.0,0.006,2.039473684210526,0.00014974030470914126,0.11062026082623001
608.5,0.006,2.037797863599014,0.00014949432478399342,0.11057480355666062
609.0,0.006,2.0361247947454846,0.0001492489504719843,0.11052940228044711
609.5,0.006,2.0344544708777685,0.00014900417978668348,0.11048405688273133
610.0,0.006,2.0327868852459017,0.00014876001074979846,0.11043876724898467
610.5,0.006,2.031122031122031,0.00014851644139113424,0.11039353326500691
611.0,0.006,2.0294599018003274,0.0001482734697485542,0.11034835481692495
611.5,0.006,2.027800490596893,0.00014803109386794,0.11030323179119167
612.0,0.006,2.026143790849673,0.00014778931180315264,0.11025816407458469
612.5,0.006,2.024489795918367,0.00014754812161599335,0.1102131515542052
613.0,0.006,2.0228384991843393,0.0001473075213761646,0.11016819411747673
613.5,0.006,2.0211898940505297,0.0001470675091612317,0.11012329165214405
614.0,0.006,2.019543973941368,0.00014682808305658415,0.11007844404627187
614.5,0.006,2.017900732302685,0.0001465892411553977,0.11003365118824383
615.0,0.006,2.016260162601626,0.00014635098155859605,0.10998891296676112
615.5,0.006,2.014622258326564,0.00014611330237481368,0.1099442292708416
616.0,0.006,2.012987012987013,0.00014587620172035756,0.10989959998981834
616.5,0.006,2.0113544201135443,0.0001456396777191705,0.10985502501333867
617.0,0.006,2.0097244732576987,0.00014540372850279366,0.109810504231363
617.5,0.006,2.0080971659919027,0.00014516835221032963,0.10976603753416363
618.0,0.006,2.0064724919093853,0.0001449335469884061,0.10972162481232363
618.5,0.006,2.0048504446240907,0.0001446993109911389,0.10967726595673574
619.0,0.006,2.003231017770598,0.0001444656423800961,0.10963296085860122
619.5,0.006,2.0016142050040355,0.00014423253932426176,0.10958870940942873
620.0,0.006,2.0,0.000144,0.10954451150103323
620.5,0.006,1.9983883964544722,0.00014376802259101956,0.10950036702553483
621.0,0.006,1.996779388083736,0.0001435366052883381,0.10945627587535771
621.5,0.006,1.995172968624296,0.0001433057462902471,0.10941223794322907
622.0,0.006,1.9935691318327975,0.00014307544380227666,0.10936825312217795
622.5,0.006,1.9919678714859437,0.0001428456960371607,0.10932432130553413
623.0,0.006,1.9903691813804174,0.00014261650121480233,0.10928044238692716
623.5,0.006,1.9887730553327987,0.0001423878575622392,0.10923661626028514
624.0,0.006,1.9871794871794872,0.00014215976331360947,0.10919284281983377
624.5,0.006,1.9855884707766214,0.00014193221671011748,0.10914912196009516
625.0,0.006,1.984,0.000141705216,0.10910545357588684
625.5,0.006,1.982414068745004,0.00014147875943849237,0.10906183756232068
626.0,0.006,1.9808306709265175,0.0001412528452877951,0.10901827381480182
626.5,0.006,1.9792498004788508,0.00014102747181704055,0.10897476222902762
627.0,0.006,1.977671451355662,0.0001408026373022596,0.10893130270098661
627.5,0.006,1.9760956175298805,0.0001405783400263488,0.10888789512695744
628.0,0.006,1.9745222929936306,0.00014035457827903767,0.1088445394035079
628.5,0.006,1.9729514717581544,0.00014013135035685604,0.10880123542749377
629.0,0.006,1.971383147853736,0.0001399086545631014,0.1087579830960579
629.5,0.006,1.9698173153296268,0.00013968648920780708,0.10871478230662912
630.0,0.006,1.9682539682539681,0.00013946485260770975,0.10867163295692124
630.5,0.006,1.9666931007137192,0.00013924374308621796,0.108628534944932
631.0,0.006,1.9651347068145801,0.00013902315897338014,0.10858548816894217
631.5,0.006,1.9635787806809184,0.00013880309860585304,0.10854249252751436
632.0,0.006,1.9620253164556962,0.0001385835603268707,0.10849954791949216
632.5,0.006,1.9604743083003953,0.00013836454248621288,0.10845665424399911
633.0,0.006,1.9589257503949447,0.0001381460434401743,0.10841381140043767
633.5,0.006,1.957379636937648,0.00013792806155153372,0.10837101928848823
634.0,0.006,1.9558359621451105,0.00013771059518952324,0.10832827780810818
634.5,0.006,1.954294720252167,0.00013749364272979786,0.10828558685953087
635.0,0.006,1.952755905511811,0.00013727720255440515,0.10824294634326463
635.5,0.006,1.951219512195122,0.0001370612730517549,0.10820035616009187
636.0,0.006,1.949685534591195,0.00013684585261658955,0.10815781621106803
636.5,0.006,1.94815396700707,0.00013663093964995385,0.10811532639752063
637.0,0.006,1.946624803767661,0.00013641653255916546,0.10807288662104833
637.5,0.006,1.9450980392156862,0.00013620262975778548,0.10803049678351997
638.0,0.006,1.9435736677115987,0.00013598922966558897,0.1079881567870736
638.5,0.006,1.942051683633516,0.00013577633070853588,0.10794586653411559
639.0,0.006,1.9405320813771518,0.00013556393131874188,0.10790362592731957
639.5,0.006,1.9390148553557467,0.00013535202993444963,0.10786143486962557
640.0,0.006,1.9375,0.000135140625,0.10781929326423913
640.5,0.006,1.9359875097580015,0.00013492971496580357,0.10777720101463022
641.0,0.006,1.9344773790951637,0.00013471929828831218,0.10773515802453247
641.5,0.006,1.9329696024941543,0.00013450937342999073,0.10769316419794214
642.0,0.006,1.9314641744548287,0.00013429993885928903,0.10765121943911724
642.5,0.006,1.9299610894941635,0.00013409099305061395,0.1076093236525766
643.0,0.006,1.9284603421461897,0.00013388253448430156,0.10756747674309897
643.5,0.006,1.926961926961927,0.0001336745616465896,0.10752567861572213
644.0,0.006,1.9254658385093169,0.00013346707302958993,0.1074839291757419
644.5,0.006,1.9239720713731574,0.00013326006713126106,0.10744222832871135
645.0,0.006,1.9224806201550388,0.0001330535424553813,0.10740057598043985
645.5,0.006,1.9209914794732765,0.0001328474975115214,0.10735897203699214
646.0,0.006,1.9195046439628483,0.00013264193081501786,0.10731741640468749
646.5,0.006,1.9180201082753288,0.00013243684088694614,0.10727590899009885
647.0,0.006,1.9165378670788253,0.00013223222625409391,0.10723444970005186
647.5,0.006,1.915057915057915,0.00013202808544893486,0.10719303844162405
648.0,0.006,1.9135802469135803,0.0001318244170096022,0.10715167512214395
648.5,0.006,1.9121048573631456,0.00013162121947986246,0.1071103596491902
649.0,0.006,1.9106317411402156,0.00013141849140908972,0.10706909193059076
649.5,0.006,1.9091608929946113,0.00013121623135223937,0.10702787187442189
650.0,0.006,1.9076923076923078,0.0001310144378698225,0.10698669938900746
650.5,0.006,1.9062259800153727,0.00013081310952788047,0.10694557438291795
651.0,0.006,1.9047619047619047,0.00013061224489795917,0.10690449676496976
651.5,0.006,1.903300076745971,0.00013041184255708387,0.10686346644422418
652.0,0.006,1.901840490797546,0.0001302119010877338,0.10682248332998664
652.5,0.006,1.9003831417624522,0.0001300124190778174,0.10678154733180595
653.0,0.006,1.898928024502297,0.00012981339512064708,0.10674065835947323
653.5,0.006,1.8974751338944147,0.00012961482781491458,0.10669981632302132
654.0,0.006,1.8960244648318043,0.00012941671576466627,0.10665902113272382
654.5,0.006,1.894576012223071,0.0001292190575792787,0.10661827269909425
655.0,0.006,1.8931297709923665,0.00012902185187343393,0.10657757093288531
655.5,0.006,1.8916857360793287,0.0001288250972670957,0.10653691574508796
656.0,0.006,1.8902439024390243,0.00012862879238548483,0.10649630704693072
656.5,0.006,1.8888042650418888,0.00012843293585905547,0.10645574474987873
657.0,0.006,1.887366818873668,0.00012823752632347115,0.10641522876563302
657.5,0.006,1.8859315589353611,0.00012804256241958102,0.10637475900612968
658.0,0.006,1.884498480243161,0.0001278480427933962,0.10633433538353905
658.5,0.006,1.8830675778283978,0.00012765396609606632,0.10629395781026496
659.0,0.006,1.881638846737481,0.00012746033098385608,0.10625362619894385
659.5,0.006,1.8802122820318423,0.00012726713611812198,0.10621334046244404
660.0,0.006,1.878787878787879,0.00012707438016528925,0.10617310051386497
660.5,0.006,1.8773656320968963,0.00012688206179682884,0.10613290626653629
661.0,0.006,1.8759455370650528,0.00012669017968923443,0.10609275763401721
661.5,0.006,1.874527588813303,0.00012649873252399977,0.10605265453009566
662.0,0.006,1.8731117824773413,0.00012630771898759592,0.10601259686878747
662.5,0.006,1.8716981132075472,0.00012611713777144892,0.10597258456433571
663.0,0.006,1.8702865761689291,0.00012592698757191704,0.10593261753120978
663.5,0.006,1.8688771665410702,0.00012573726709026885,0.10589269568410477
664.0,0.006,1.8674698795180722,0.00012554797503266075,0.10585281893794059
664.5,0.006,1.8660647103085026,0.00012535911011011522,0.10581298720786128
665.0,0.006,1.8646616541353382,0.0001251706710384985,0.10577320040923424
665.5,0.006,1.8632607062359128,0.0001249826565384991,0.10573345845764943
666.0,0.006,1.8618618618618619,0.00012479506533560588,0.10569376126891866
666.5,0.006,1.8604651162790697,0.00012460789616008654,0.10565410875907486
667.0,0.006,1.8590704647676162,0.0001244211477469661,0.10561450084437125
667.5,0.006,1.857677902621723,0.00012423481883600557,0.10557493744128073
668.0,0.006,1.8562874251497006,0.0001240489081716806,0.10553541846649495
668.5,0.006,1.8548990276738968,0.00012386341450316044,0.1054959438369238
669.0,0.006,1.8535127055306428,0.00012367833658428684,0.1054565134696945
669.5,0.006,1.8521284540702017,0.0001234936731735531,0.10541712728215093
670.0,0.006,1.8507462686567164,0.00012330942303408332,0.10537778519185292
670.5,0.006,1.8493661446681582,0.0001231255849336116,0.10533848711657552
671.0,0.006,1.8479880774962743,0.00012294215764446152,0.10529923297430825
671.5,0.006,1.8466120625465376,0.0001227591399435256,0.10526002268325438
672.0,0.006,1.8452380952380953,0.00012257653061224492,0.10522085616183026
672.5,0.006,1.8438661710037174,0.00012239432843658875,0.10518173332866455
673.0,0.006,1.8424962852897473,0.00012221253220703467,0.1051426541025976
673.5,0.006,1.8411284335560505,0.00012203114071854802,0.10510361840268061
674.0,0.006,1.8397626112759644,0.0001218501527705624,0.10506462614817504
674.5,0.006,1.838398813936249,0.00012166956716695948,0.10502567725855184
675.0,0.006,1.837037037037037,0.0001214893827160494,0.10498677165349082
675.5,0.006,1.8356772760917839,0.00012130959823055106,0.10494790925287985
676.0,0.006,1.834319526627219,0.00012113021252757258,0.10490908997681428
676.5,0.006,1.8329637841832964,0.0001209512244285918,0.10487031374559617
677.0,0.006,1.8316100443131462,0.00012077263275943701,0.10483158047973368
677.5,0.006,1.830258302583026,0.00012059443635026757,0.10479289009994025
678.0,0.006,1.8289085545722714,0.00012041663403555487,0.1047542425271341
678.5,0.006,1.8275607958732498,0.0001202392246540632,0.10471563768243738
679.0,0.006,1.8262150220913107,0.0001200622070488308,0.10467707548717563
679.5,0.006,1.8248712288447388,0.00011988558006715105,0.10463855586287701
680.0,0.006,1.8235294117647058,0.00011970934256055364,0.10460007873127168
680.5,0.006,1.8221895664952241,0.0001195334933847859,0.10456164401429113
681.0,0.006,1.8208516886930983,0.00011935803139979428,0.10452325163406748
681.5,0.006,1.8195157740278798,0.00011918295546970589,0.10448490151293285
682.0,0.006,1.8181818181818181,0.0001190082644628099,0.1044465935734187
682.5,0.006,1.8168498168498168,0.00011883395725153968,0.10440832773825516
683.0,0.006,1.8155197657393851,0.00011866003271245412,0.10437010393037037
683.5,0.006,1.8141916605705926,0.00011848648972621985,0.10433192207288983
684.0,0.006,1.8128654970760234,0.0001183133271775931,0.10429378208913578
684.5,0.006,1.8115412710007304,0.0001181405439554019,0.10425568390262654
685.0,0.006,1.8102189781021898,0.0001179681389525281,0.10421762743707583
685.5,0.006,1.8088986141502552,0.00011779611106588972,0.10417961261639214
686.0,0.006,1.8075801749271136,0.00011762445919642327,0.10414163936467816
686.5,0.006,1.8062636562272396,0.00011745318224906624,0.10410370760623004
687.0,0.006,1.8049490538573507,0.00011728227913273963,0.10406581726553683
687.5,0.006,1.8036363636363637,0.00011711174876033059,0.10402796826727985
688.0,0.006,1.802325581395349,0.00011694159004867498,0.10399016053633196
688.5,0.006,1.8010167029774873,0.00011677180191854033,0.10395239399775709
689.0,0.006,1.7997097242380262,0.00011660238329460887,0.10391466857680949
689.5,0.006,1.798404641044235,0.00011643333310545998,0.10387698419893317
690.0,0.006,1.7971014492753623,0.00011626465028355388,0.10383934078976124
690.5,0.006,1.7958001448225924,0.00011609633376521438,0.1038017382751154
691.0,0.006,1.7945007235890014,0.00011592838249061217,0.1037641765810051
691.5,0.006,1.7932031814895155,0.00011576079540374832,0.10372665563362723
692.0,0.006,1.7919075144508672,0.00011559357145243747,0.10368917535936528
692.5,0.006,1.7906137184115523,0.00011542670958829127,0.10365173568478878
693.0,0.006,1.7893217893217894,0.00011526020876670227,0.10361433653665277
693.5,0.006,1.788031723143475,0.0001150940679468273,0.10357697784189714
694.0,0.006,1.7867435158501441,0.00011492828609157124,0.10353965952764604
694.5,0.006,1.7854571634269258,0.00011476286216757087,0.1035023815212073
695.0,0.006,1.7841726618705036,0.00011459779514517883,0.1034651437500718
695.5,0.006,1.7828900071890725,0.00011443308399844743,0.10342794614191289
696.0,0.006,1.7816091954022988,0.00011426872770511295,0.10339078862458585
696.5,0.006,1.7803302225412778,0.00011410472524657952,0.10335367112612724
697.0,0.006,1.7790530846484935,0.00011394107560790354,0.1033165935747543
697.5,0.006,1.7777777777777777,0.00011377777777777778,0.10327955589886445
698.0,0.006,1.7765042979942693,0.00011361483074851601,0.10324255802703464
698.5,0.006,1.7752326413743738,0.00011345223351603731,0.10320559988802082
699.0,0.006,1.7739628040057225,0.00011328998507985042,0.10316868141075727
699.5,0.006,1.7726947819871337,0.0001131280844430388,0.10313180252435619
700.0,0.006,1.7714285714285714,0.00011296653061224489,0.10309496315810694
700.5,0.006,1.7701641684511062,0.00011280532259765509,0.10305816324147563
701.0,0.006,1.768901569186876,0.00011264445941298452,0.10302140270410443
701.5,0.006,1.7676407697790448,0.00011248394007546196,0.1029846814758111
702.0,0.006,1.7663817663817665,0.00011232376360581491,0.10294799948658837
702.5,0.006,1.7651245551601424,0.00011216392902825448,0.10291135666660339
703.0,0.006,1.763869132290185,0.00011200443537046068,0.1028747529461972
703.5,0.006,1.7626154939587775,0.00011184528166356764,0.10283818825588413
704.0,0.006,1.7613636363636365,0.00011168646694214877,0.10280166252635128
704.5,0.006,1.7601135557132719,0.00011152799024420223,0.10276517568845797
705.0,0.006,1.7588652482269505,0.00011136985061113627,0.10272872767323511
705.5,0.006,1.7576187101346563,0.00011121204708775487,0.10269231841188482
706.0,0.006,1.7563739376770537,0.00011105457872224317,0.10265594783577969
706.5,0.006,1.7551309271054494,0.00011089744456615324,0.10261961587646241
707.0,0.006,1.7538896746817538,0.00011074064367438965,0.10258332246564508
707.5,0.006,1.7526501766784452,0.00011058417510519548,0.10254706753520879
708.0,0.006,1.7514124293785311,0.0001104280379201379,0.10251085101720299
708.5,0.006,1.7501764290755117,0.00011027223118409436,0.10247467284384504
709.0,0.006,1.7489421720733427,0.00011011675396523839,0.10243853294751959
709.5,0.006,1.7477096546863988,0.00010996160533502587,0.10240243126077815
710.0,0.006,1.7464788732394365,0.0001098067843681809,0.10236636771633845
710.5,0.006,1.745249824067558,0.00010965229014268233,0.10233034224708402
711.0,0.006,1.7440225035161745,0.0001094981217397497,0.10229435478606357
711.5,0.006,1.7427969079409698,0.00010934427824382977,0.10225840526649053
712.0,0.006,1.7415730337078652,0.00010919075874258302,0.10222249362174253
712.5,0.006,1.7403508771929825,0.00010903756232686981,0.10218661978536082
713.0,0.006,1.7391304347826086,0.00010888468809073722,0.10215078369104982
713.5,0.006,1.7379117028731605,0.0001087321351314056,0.10211498527267662
714.0,0.006,1.7366946778711485,0.00010857990254925501,0.10207922446427035
714.5,0.006,1.735479356193142,0.00010842798944781228,0.10204350120002181
715.0,0.006,1.7342657342657342,0.0001082763949337376,0.10200781541428287
715.5,0.006,1.7330538085255067,0.0001081251181168115,0.101972167041566
716.0,0.006,1.7318435754189945,0.00010797415810992169,0.10193655601654378
716.5,0.006,1.7306350314026517,0.00010782351402905005,0.10190098227404831
717.0,0.006,1.7294281729428174,0.00010767318499325993,0.10186544574907089
717.5,0.006,1.7282229965156795,0.00010752317012468285,0.10182994637676128
718.0,0.006,1.7270194986072422,0.00010737346854850599,0.10179448409242739
718.5,0.006,1.7258176757132915,0.00010722407939295941,0.10175905883153474
719.0,0.006,1.7246175243393602,0.00010707500178930324,0.10172367052970592
719.5,0.006,1.7234190410006949,0.00010692623487181517,0.10168831912272012
720.0,0.006,1.7222222222222223,0.00010677777777777781,0.10165300454651272
720.5,0.006,1.7210270645385148,0.00010662962964746607,0.10161772673717459
721.0,0.006,1.7198335644937586,0.00010648178962413507,0.10158248563095192
721.5,0.006,1.7186417186417187,0.00010633425685400739,0.10154728116424541
722.0,0.006,1.7174515235457064,0.00010618703048626087,0.10151211327361005
722.5,0.006,1.7162629757785468,0.00010604010967301636,0.10147698189575446
723.0,0.006,1.7150760719225449,0.00010589349356932559,0.10144188696754053
723.5,0.006,1.713890808569454,0.00010574718133315883,0.10140682842598285
724.0,0.006,1.712707182320442,0.000105601172125393,0.10137180620824832
724.5,0.006,1.7115251897860593,0.00010545546510979942,0.1013368202516556
725.0,0.006,1.710344827586207,0.00010531005945303212,0.1013018704936747
725.5,0.006,1.7091660923501033,0.0001051649543246156,0.1012669568719265
726.0,0.006,1.7079889807162534,0.00010502014889693324,0.10123207932418221
726.5,0.006,1.7068134893324156,0.00010487564234521547,0.10119723778836305
727.0,0.006,1.7056396148555708,0.00010473143384752775,0.10116243220253962
727.5,0.006,1.70446735395189,0.00010458752258475929,0.10112766250493156
728.0,0.006,1.7032967032967032,0.00010444390774061103,0.10109292863390702
728.5,0.006,1.702127659574468,0.00010430058850158442,0.10105823052798227
729.0,0.006,1.700960219478738,0.00010415756405696964,0.10102356812582115
729.5,0.006,1.6997943797121315,0.00010401483359883422,0.1009889413662347
730.0,0.006,1.6986301369863013,0.00010387239632201161,0.10095435018818064
730.5,0.006,1.6974674880219027,0.00010373025142408997,0.10091979453076297
731.0,0.006,1.6963064295485637,0.00010358839810540068,0.10088527433323152
731.5,0.006,1.695146958304853,0.00010344683556900704,0.10085078953498143
732.0,0.006,1.6939890710382515,0.00010330556302069338,0.10081634007555278
732.5,0.006,1.6928327645051195,0.00010316457966895364,0.10078192589463011
733.0,0.006,1.6916780354706684,0.00010302388472498039,0.10074754693204202
733.5,0.006,1.6905248807089297,0.00010288347740265386,0.10071320312776065
734.0,0.006,1.6893732970027249,0.00010274335691853085,0.1006788944219013
734.5,0.005,1.688223281143635,7.125244617488454e-05,0.09187554846485639
735.0,0.005,1.6870748299319729,7.115553704474989e-05,0.09184429296183767
735.5,0.005,1.6859279401767504,7.105882548671553e-05,0.09181306933592707
736.0,0.006,1.684782608695652,0.00010218572778827977,0.10054200938997546
736.5,0.006,1.6836388323150033,0.00010204702983644501,0.10050787528293502
737.0,0.006,1.682496607869742,0.0001019086140777548,0.10047377591798994
737.5,0.005,1.6813559322033897,7.067394426888825e-05,0.09168849252232773
738.0,0.005,1.6802168021680217,7.057821255719331e-05,0.09165742747230095
738.5,0.005,1.6790792146242384,7.048267522457874e-05,0.09162639397641485
739.0,0.005,1.6779431664411366,7.03873317451627e-05,0.09159539198128737
739.5,0.005,1.6768086544962812,7.029218159484072e-05,0.0915644214336628
740.0,0.006,1.6756756756756757,0.00010108400292184077,0.10026990602396142
740.5,0.006,1.674544226873734,0.00010094754123922144,0.10023604821241909
741.0,0.006,1.6734143049932524,0.0001008113557016178,0.10020222467570027
741.5,0.005,1.672285906945381,6.991350386420339e-05,0.09144085265747966
742.0,0.005,1.6711590296495957,6.981931255948447e-05,0.09141003855292908
742.5,0.005,1.67003367003367,6.972531147615323e-05,0.09137925557897893
743.0,0.005,1.6689098250336474,6.963150010234598e-05,0.09134850368324725
743.5,0.005,1.6677874915938131,6.95378779279196e-05,0.09131778281347541
744.0,0.005,1.6666666666666667,6.944444444444444e-05,0.09128709291752768
744.5,0.005,1.6655473472128945,6.935119914519775e-05,0.09125643394339093
745.0,0.005,1.6644295302013423,6.925814152515654e-05,0.09122580583917421
745.5,0.005,1.6633132126089873,6.916527108099075e-05,0.0911952085531084
746.0,0.005,1.6621983914209115,6.907258731105665e-05,0.09116464203354586
746.5,0.005,1.6610850636302745,6.898008971538984e-05,0.09113410622896004
747.0,0.005,1.6599732262382865,6.888777779569864e-05,0.0911036010879451
747.5,0.005,1.6588628762541806,6.879565105535731e-05,0.09107312655921561
748.0,0.005,1.6577540106951871,6.870370899939948e-05,0.0910426825916061
748.5,0.005,1.6566466265865063,6.861195113451129e-05,0.09101226913407078
749.0,0.005,1.6555407209612818,6.852037696902502e-05,0.09098188613568313
749.5,0.005,1.6544362908605736,6.842898601291231e-05,0.09095153354563555
750.0,0.005,1.6533333333333333,6.833777777777778e-05,0.09092121131323905
750.5,0.005,1.6522318454363758,6.824675177685231e-05,0.09089091938792279
751.0,0.006,1.6511318242343542,9.814450683598079e-05,0.09953286364516056
751.5,0.006,1.650033266799734,9.801395213564889e-05,0.0994997467373581
752.0,0.005,1.648936170212766,6.797476233589863e-05,0.09080022495051338
752.5,0.005,1.6478405315614617,6.7884460436419e-05,0.09077005375016205
753.0,0.005,1.6467463479415672,6.779433836147223e-05,0.09073991260579788
753.5,0.005,1.645653616456536,6.77043956339119e-05,0.0907098014675519
754.0,0.005,1.6445623342175066,6.761463177817335e-05,0.090679720285671
754.5,0.005,1.6434724983432738,6.752504632026707e-05,0.09064966901051746
755.0,0.005,1.6423841059602649,6.743563878777245e-05,0.0906196475925686
755.5,0.005,1.641297154202515,6.734640870983185e-05,0.09058965598241653
756.0,0.005,1.6402116402116402,6.725735561714399e-05,0.0905596941307677
756.5,0.005,1.6391275611368143,6.716847904195803e-05,0.09052976198844263
757.0,0.005,1.6380449141347424,6.70797785180674e-05,0.09049985950637554
757.5,0.005,1.636963696369637,6.699125358080362e-05,0.09046998663561405
758.0,0.005,1.6358839050131926,6.690290376703031e-05,0.09044014332731878
758.5,0.005,1.6348055372445616,6.681472861513699e-05,0.09041032953276305
759.0,0.005,1.6337285902503293,6.672672766503322e-05,0.0903805452033326
759.5,0.005,1.6326530612244898,6.663890045814245e-05,0.09035079029052513
760.0,0.005,1.631578947368421,6.655124653739612e-05,0.09032106474595007
760.5,0.005,1.6305062458908612,6.646376544722773e-05,0.09029136852132824
761.0,0.005,1.6294349540078843,6.637645673356689e-05,0.0902617015684915
761.5,0.005,1.628365068942876,6.628931994383345e-05,0.0902320638393824
762.0,0.005,1.627296587926509,6.620235462693147e-05,0.09020245528605386
762.5,0.005,1.6262295081967213,6.611556033324375e-05,0.09017287586066891
763.0,0.005,1.6251638269986894,6.602893661462567e-05,0.0901433255155003
763.5,0.005,1.6240995415848067,6.59424830243995e-05,0.09011380420293016
764.0,0.005,1.6230366492146597,6.585619911734876e-05,0.09008431187544975
764.5,0.005,1.6219751471550032,6.577008444971236e-05,0.09005484848565909
765.0,0.005,1.6209150326797386,6.568413857917895e-05,0.09002541398626664
765.5,0.005,1.619856303069889,6.55983610648812e-05,0.08999600833008899
766.0,0.005,1.6187989556135771,6.551275146739022e-05,0.08996663147005053
766.5,0.005,1.6177429876060012,6.542730934870977e-05,0.08993728335918318
767.0,0.005,1.6166883963494132,6.534203427227093e-05,0.089907963950626
767.5,0.005,1.6156351791530945,6.525692580292629e-05,0.08987867319762499
768.0,0.005,1.6145833333333333,6.517198350694443e-05,0.0898494110535326
768.5,0.005,1.6135328562134028,6.508720695200453e-05,0.08982017747180761
769.0,0.005,1.612483745123537,6.500259570719071e-05,0.08979097240601466
769.5,0.005,1.6114359974009096,6.491814934298662e-05,0.08976179580982406
770.0,0.005,1.6103896103896105,6.483386743127005e-05,0.08973264763701143
770.5,0.005,1.6093445814406229,6.474974954530733e-05,0.08970352784145735
771.0,0.005,1.608300907911803,6.466579525974825e-05,0.08967443637714717
771.5,0.005,1.6072585871678549,6.458200415062022e-05,0.08964537319817055
772.0,0.005,1.6062176165803108,6.449837579532336e-05,0.0896163382587213
772.5,0.005,1.6051779935275081,6.441490977262492e-05,0.08958733151309699
773.0,0.005,1.6041397153945667,6.433160566265404e-05,0.08955835291569868
773.5,0.005,1.6031027795733679,6.424846304689647e-05,0.08952940242103061
774.0,0.005,1.6020671834625324,6.416548150818928e-05,0.08950047998369988
774.5,0.005,1.6010329244673984,6.408266063071577e-05,0.08947158555841622
775.0,0.005,1.6,6.4e-05,0.08944271909999159
775.5,0.005,1.5989684074790458,6.391749920290191e-05,0.08941388056334
776.0,0.005,1.597938144329897,6.383515782761187e-05,0.08938506990347708
776.5,0.005,1.596909207984546,6.375297546364575e-05,0.08935628707551993
777.0,0.005,1.595881595881596,6.367095170183972e-05,0.0893275320346867
777.5,0.005,1.594855305466238,6.358908613434518e-05,0.08929880473629638
778.0,0.005,1.5938303341902313,6.35073783546236e-05,0.08927010513576847
778.5,0.005,1.5928066795118818,6.342582795744167e-05,0.0892414331886227
779.0,0.005,1.5917843388960204,6.334443453886603e-05,0.08921278885047873
779.5,0.005,1.5907633098139833,6.326319769625849e-05,0.0891841720770559
780.0,0.005,1.5897435897435896,6.318211702827088e-05,0.08915558282417287
780.5,0.005,1.5887251761691223,6.310119213484021e-05,0.08912702104774742
781.0,0.005,1.587708066581306,6.302042261718371e-05,0.0890984867037961
781.5,0.005,1.5866922584772873,6.293980807779388e-05,0.08906997974843398
782.0,0.005,1.5856777493606138,6.285934812043354e-05,0.0890415001378743
782.5,0.005,1.584664536741214,6.277904235013118e-05,0.08901304782842834
783.0,0.005,1.5836526181353767,6.269889037317585e-05,0.08898462277650496
783.5,0.005,1.5826419910657308,6.261889179711252e-05,0.08895622493861041
784.0,0.005,1.5816326530612246,6.253904623073721e-05,0.0889278542713481
784.5,0.005,1.5806246016571064,6.245935328409216e-05,0.08889951073141815
785.0,0.005,1.5796178343949046,6.237981256846121e-05,0.08887119427561736
785.5,0.005,1.5786123488224062,6.230042369636485e-05,0.08884290486083866
786.0,0.005,1.5776081424936388,6.222118628155575e-05,0.0888146424440711
786.5,0.005,1.5766052129688493,6.214209993901376e-05,0.08878640698239931
787.0,0.005,1.5756035578144854,6.20631642849416e-05,0.0887581984330035
787.5,0.005,1.5746031746031746,6.19843789367599e-05,0.08873001675315899
788.0,0.005,1.5736040609137056,6.190574351310263e-05,0.08870186190023593
788.5,0.005,1.5726062143310082,6.182725763381262e-05,0.08867373383169923
789.0,0.005,1.5716096324461344,6.174892091993686e-05,0.08864563250510807
789.5,0.005,1.5706143128562382,6.167073299372183e-05,0.08861755787811573
790.0,0.005,1.5696202531645569,6.15926934786092e-05,0.08858950990846932
790.5,0.005,1.5686274509803921,6.151480199923106e-05,0.08856148855400953
791.0,0.005,1.5676359039190897,6.143705818140554e-05,0.0885334937726703
791.5,0.005,1.5666456096020214,6.135946165213223e-05,0.08850552552247858
792.0,0.005,1.5656565656565657,6.128201203958779e-05,0.08847758376155414
792.5,0.005,1.5646687697160884,6.120470897312144e-05,0.08844966844810918
793.0,0.004,1.5636822194199242,3.9121633333280324e-05,0.0790868438975769
793.5,0.005,1.5626969124133585,6.10505410016561e-05,0.08839391699696758
794.0,0.005,1.561712846347607,6.0973675361178617e-05,0.08836608077615549
794.5,0.005,1.5607300188797986,6.0896954795813404e-05,0.0883382708365915
795.0,0.005,1.559748427672956,6.082037894070647e-05,0.08831048713694643
795.5,0.005,1.5587680703959774,6.074394743214997e-05,0.08828272963598195
796.0,0.005,1.5577889447236182,6.066765990757809e-05,0.0882549982925505
796.5,0.005,1.556811048336472,6.059151600556263e-05,0.08822729306559485
797.0,0.005,1.5558343789209537,6.0515515365808744e-05,0.08819961391414799
797.5,0.005,1.554858934169279,6.043965762915065e-05,0.08817196079733282
798.0,0.005,1.5538847117794485,6.03639424375475e-05,0.08814433367436186
798.5,0.005,1.5529117094552285,6.0288369434079e-05,0.08811673250453708
799.0,0.005,1.5519399249061328,6.021293826294133e-05,0.08808915724724958
799.5,0.005,1.5509693558474047,6.0137648569442845e-05,0.08806160786197935
800.0,0.005,1.55,6.006250000000001e-05,0.08803408430829505
800.5,0.005,1.5490318550905684,5.9987492202133204e-05,0.08800658654585373
801.0,0.005,1.5480649188514357,5.991262482446256e-05,0.0879791145344006
801.5,0.005,1.5470991890205863,5.9837897516703905e-05,0.08795166823376878
802.0,0.005,1.546134663341646,5.976330992966463e-05,0.08792424760387904
802.5,0.005,1.5451713395638629,5.968886171523956e-05,0.08789685260473958
803.0,0.004,1.544209215442092,3.81533136169005e-05,0.07859285503001127
803.5,0.004,1.5432482887367767,3.810584449102384e-05,0.07856839794056582
804.0,0.004,1.5422885572139304,3.805846389940844e-05,0.07854396366911796
804.5,0.005,1.541330018645121,5.9392455659414236e-05,0.08778752811889401
805.0,0.004,1.5403726708074534,3.79639674395278e-05,0.07849516343845533
805.5,0.005,1.5394165114835505,5.9245079895704615e-05,0.08773301862706967
806.0,0.005,1.5384615384615385,5.91715976331361e-05,0.08770580193070292
806.5,0.005,1.537507749535028,5.9098251997006665e-05,0.08767861054826964
807.0,0.004,1.5365551425030979,3.777602729524344e-05,0.07839783523804973
807.5,0.005,1.5356037151702786,5.895196925111906e-05,0.0876243035684244
808.0,0.005,1.5346534653465347,5.8879031467503194e-05,0.0875971878928352
808.5,0.005,1.533704390847248,5.880622896260321e-05,0.08757009737482448
809.0,0.005,1.5327564894932015,5.8733561402088074e-05,0.0875430319755148
809.5,0.004,1.5318097591105622,3.754305820970174e-05,0.07827668258454908
810.0,0.005,1.5308641975308641,5.858862978204541e-05,0.087488976377909
810.5,0.004,1.5299198025909932,3.745047363776102e-05,0.07822837854873366
811.0,0.004,1.528976572133169,3.7404309730113535e-05,0.07820426004082306
811.5,0.004,1.5280345040049292,3.735823112687344e-05,0.0781801638270202
812.0,0.004,1.5270935960591132,3.731223761799607e-05,0.078156089873
812.5,0.004,1.5261538461538462,3.7266328994082836e-05,0.0781320381445114
813.0,0.004,1.5252152521525215,3.722050504637888e-05,0.07810800860737704
813.5,0.005,1.524277811923786,5.808557119807913e-05,0.0873005673499258
814.0,0.004,1.5233415233415233,3.712911034778356e-05,0.0780600159708291
814.5,0.004,1.5224063842848374,3.708353918257972e-05,0.07803605280342767
815.0,0.004,1.521472392638037,3.7038051864955405e-05,0.07801211169140436
815.5,0.004,1.5205395462906193,3.699264818933892e-05,0.07798819260094747
816.0,0.005,1.5196078431372548,5.7730199923106496e-05,0.08716673227605974
816.5,0.004,1.518677281077771,3.690209094498833e-05,0.07794042034984854
817.0,0.004,1.517747858017136,3.6856936968249665e-05,0.07791656712194489
817.5,0.004,1.5168195718654434,3.681186581750508e-05,0.07789273578108406
818.0,0.004,1.5158924205378974,3.676687729030793e-05,0.07786892629381498
818.5,0.004,1.5149664019547953,3.672197118482974e-05,0.07784513862675807
819.0,0.004,1.514041514041514,3.667714729985792e-05,0.07782137274660514
819.5,0.004,1.513117754728493,3.663240543479354e-05,0.07779762862011909
820.0,0.004,1.5121951219512195,3.658774538964902e-05,0.07777390621413378
820.5,0.004,1.5112736136502132,3.654316696504598e-05,0.07775020549555385
821.0,0.004,1.510353227771011,3.649866996221299e-05,0.07772652643135447
821.5,0.004,1.509433962264151,3.6454254182983276e-05,0.07770286898858114
822.0,0.004,1.508515815085158,3.6409919429792626e-05,0.07767923313434957
822.5,0.004,1.5075987841945289,3.636566550567715e-05,0.07765561883584546
823.0,0.004,1.5066828675577157,3.6321492214271064e-05,0.07763202606032425
823.5,0.004,1.5057680631451122,3.627739935980452e-05,0.077608454775111
824.0,0.004,1.5048543689320388,3.6233386747101524e-05,0.07758490494760019
824.5,0.005,1.5039417828987265,5.6546022158715005e-05,0.08671625519182452
825.0,0.005,1.503030303030303,5.6477502295684106e-05,0.08668997355606653
825.5,0.004,1.5021199273167778,3.6101828416674586e-05,0.07751438388626404
826.0,0.004,1.5012106537530265,3.605813483106543e-05,0.07749091956488906
826.5,0.004,1.5003024803387779,3.6014520520171024e-05,0.0774674765392233
827.0,0.004,1.4993954050785974,3.5970985292332975e-05,0.07744405477707368
827.5,0.004,1.498489425981873,3.592752895647173e-05,0.07742065424631525
828.0,0.004,1.497584541062802,3.5884151322084526e-05,0.07739727491489094
828.5,0.004,1.4966807483403741,3.584085219924324e-05,0.07737391675081143
829.0,0.004,1.4957780458383594,3.579763139859234e-05,0.07735057972215488
829.5,0.004,1.4948764315852923,3.575448873134683e-05,0.07732726379706688
830.0,0.004,1.4939759036144578,3.571142400929017e-05,0.07730396894376014
830.5,0.004,1.4930764599638773,3.5668437044772224e-05,0.07728069513051439
831.0,0.004,1.4921780986762936,3.5625527650707177e-05,0.07725744232567613
831.5,0.004,1.491280817799158,3.558269564057162e-05,0.07723421049765856
832.0,0.004,1.4903846153846154,3.553994082840237e-05,0.07721099961494128
832.5,0.004,1.4894894894894894,3.5497263028794555e-05,0.07718780964607014
833.0,0.004,1.4885954381752702,3.5454662056899595e-05,0.07716464055965712
833.5,0.004,1.4877024595080983,3.5412137728423114e-05,0.0771414923243801
834.0,0.004,1.486810551558753,3.53696898596231e-05,0.07711836490898269
834.5,0.004,1.4859197124026362,3.5327318267307734e-05,0.07709525828227405
835.0,0.004,1.4850299401197604,3.5285022768833583e-05,0.07707217241312873
835.5,0.004,1.4841412327947336,3.524280318210355e-05,0.07704910727048649
836.0,0.004,1.4832535885167464,3.5200659325564883e-05,0.0770260628233521
836.5,0.004,1.4823670053795577,3.515859101820733e-05,0.07700303904079521
837.0,0.004,1.4814814814814814,3.511659807956104e-05,0.0769800358919501
837.5,0.004,1.480597014925373,3.507468032969481e-05,0.07695705334601562
838.0,0.004,1.4797136038186158,3.503283758921401e-05,0.07693409137225489
838.5,0.004,1.4788312462731068,3.4991069679258725e-05,0.07691114993999522
839.0,0.004,1.4779499404052443,3.494937642150184e-05,0.07688822901862792
839.5,0.004,1.4770696843359141,3.4907757638147155e-05,0.0768653285776081
840.0,0.005,1.4761904761904763,5.4478458049886624e-05,0.08591246929842246
840.5,0.004,1.4753123140987507,3.482474278610258e-05,0.07681958901474938
841.0,0.004,1.474435196195006,3.478334636445769e-05,0.07679674983213823
841.5,0.004,1.4735591206179441,3.474202371130126e-05,0.07677393100832976
842.0,0.004,1.4726840855106889,3.4700774651463266e-05,0.07675113251309557
842.5,0.004,1.4718100890207715,3.46595990102933e-05,0.0767283543162701
843.0,0.004,1.4709371293001186,3.4618496613658785e-05,0.07670559638775044
843.5,0.004,1.4700652045050386,3.4577467287943065e-05,0.07668285869749611
844.0,0.004,1.4691943127962086,3.453651086004358e-05,0.07666014121552892
844.5,0.004,1.4683244523386618,3.44956271573701e-05,0.0766374439119328
845.0,0.004,1.467455621301775,3.445481600784286e-05,0.07661476675685373
845.5,0.004,1.4665878178592548,3.441407723989073e-05,0.0765921097204994
846.0,0.004,1.4657210401891252,3.437341068244946e-05,0.07656947277313916
846.5,0.004,1.4648552864737152,3.433281616495985e-05,0.07654685588510388
847.0,0.004,1.463990554899646,3.429229351736597e-05,0.07652425902678564
847.5,0.004,1.463126843657817,3.4251842570113385e-05,0.07650168216863776
848.0,0.004,1.4622641509433962,3.421146315414739e-05,0.07647912528117451
848.5,0.004,1.4614024749558043,3.417115510091121e-05,0.07645658833497096
849.0,0.004,1.4605418138987043,3.413091824234428e-05,0.07643407130066289
849.5,0.004,1.4596821659799881,3.4090752410880474e-05,0.07641157414894652
850.0,0.004,1.4588235294117646,3.405065743944636e-05,0.07638909685057847
850.5,0.004,1.4579659024103468,3.4010633161459475e-05,0.07636663937637551
851.0,0.004,1.4571092831962398,3.397067941082655e-05,0.07634420169721443
851.5,0.004,1.456253669994128,3.393079602194186e-05,0.07632178378403189
852.0,0.004,1.4553990610328638,3.389098282968547e-05,0.07629938560782423
852.5,0.004,1.4545454545454546,3.3851239669421494e-05,0.07627700713964738
853.0,0.004,1.4536928487690504,3.3811566376996435e-05,0.07625464835061664
853.5,0.004,1.4528412419449326,3.3771962788737515e-05,0.07623230921190655
854.0,0.004,1.4519906323185012,3.373242874145089e-05,0.07620998969475068
854.5,0.004,1.4511410181392628,3.36929640724201e-05,0.0761876897704416
855.0,0.004,1.4502923976608186,3.365356861940426e-05,0.07616540941033058
855.5,0.004,1.4494447691408534,3.361424222063651e-05,0.07614314858582756
856.0,0.004,1.4485981308411215,3.357498471482226e-05,0.07612090726840089
856.5,0.004,1.4477524810274371,3.3535795941137594e-05,0.07609868542957722
857.0,0.004,1.4469078179696615,3.3496675739227634e-05,0.07607648304094142
857.5,0.004,1.446064139941691,3.345762394920484e-05,0.07605430007413627
858.0,0.004,1.4452214452214451,3.34186404116474e-05,0.07603213650086245
858.5,0.004,1.4443797320908562,3.337972496759766e-05,0.07600999229287835
859.0,0.004,1.4435389988358556,3.334087745856039e-05,0.07598786742199982
859.5,0.004,1.4426992437463642,3.3302097726501297e-05,0.07596576186010022
860.0,0.004,1.441860465116279,3.3263385613845315e-05,0.07594367557911005
860.5,0.004,1.4410226612434631,3.3224740963475085e-05,0.07592160855101697
861.0,0.004,1.4401858304297328,3.3186163618729267e-05,0.07589956074786554
861.5,0.004,1.4393499709808473,3.314765342340105e-05,0.07587753214175715
862.0,0.004,1.4385150812064966,3.3109210221736534e-05,0.07585552270484983
862.5,0.005,1.4376811594202898,5.167317790380172e-05,0.08478446672062902
863.0,0.005,1.436848203939745,5.161331902912178e-05,0.08475990219259769
863.5,0.004,1.4360162130862768,3.2994281027946414e-05,0.07578960913176097
864.0,0.004,1.4351851851851851,3.295610425240055e-05,0.07576767609436587
864.5,0.004,1.434355118565645,3.2917993698487444e-05,0.07574576208780646
865.0,0.004,1.4335260115606936,3.287994921313776e-05,0.0757238670845776
865.5,0.004,1.4326978625072213,3.2841970643724175e-05,0.0757019910572297
866.0,0.004,1.4318706697459584,3.280405783805984e-05,0.07568013397836869
866.5,0.004,1.4310444316214657,3.2766210644396854e-05,0.0756582958206558
867.0,0.003,1.4302191464821223,1.8409741262676457e-05,0.06550311015094144
867.5,0.003,1.4293948126801153,1.8388525774651397e-05,0.06548423045314304
868.0,0.003,1.4285714285714286,1.836734693877551e-05,0.06546536707079771
868.5,0.004,1.427748992515832,3.2615474970079576e-05,0.07557113185643925
869.0,0.004,1.42692750287687,3.257795357546272e-05,0.07554938789631244
869.5,0.004,1.4261069580218517,3.2540496891493436e-05,0.07552766269445525
870.0,0.004,1.4252873563218391,3.250310476945435e-05,0.07550595622391228
870.5,0.004,1.424468696151637,3.246577706105512e-05,0.0754842684577823
871.0,0.004,1.423650975889782,3.2428513618430856e-05,0.07546259936921818
871.5,0.004,1.4228341939185312,3.2391314294140744e-05,0.07544094893142665
872.0,0.005,1.4220183486238531,5.055340459557276e-05,0.0843213599458599
872.5,0.005,1.4212034383954155,5.049548033267379e-05,0.08429719563530615
873.0,0.005,1.420389461626575,5.04376555674958e-05,0.08427305208744297
873.5,0.004,1.4195764167143674,3.224315524626566e-05,0.07535453315400123
874.0,0.004,1.4187643020594967,3.220627431677393e-05,0.07533297557005157
874.5,0.004,1.4179531160663237,3.2169456629795157e-05,0.07531143647723959
875.0,0.004,1.417142857142857,3.213270204081632e-05,0.07528991584914561
875.5,0.004,1.4163335237007424,3.209601040573698e-05,0.07526841365940277
876.0,0.004,1.4155251141552512,3.205938158086779e-05,0.07524692988169687
876.5,0.004,1.414717626925271,3.202281542292912e-05,0.07522546448976626
877.0,0.004,1.4139110604332954,3.19863117890497e-05,0.07520401745740171
877.5,0.005,1.413105413105413,4.99216727136955e-05,0.08405668959414869
878.0,0.004,1.4123006833712983,3.191349152401658e-05,0.07516117836679514
878.5,0.004,1.4114968696642003,3.1877174609149384e-05,0.0751397862563955
879.0,0.004,1.410693970420933,3.1840919650911624e-05,0.07511841240124642
879.5,0.004,1.4098919840818647,3.180472650845275e-05,0.07509705677539873
880.0,0.004,1.4090909090909092,3.176859504132231e-05,0.07507571935295483
880.5,0.004,1.408290743895514,3.173252510946848e-05,0.07505440010806866
881.0,0.004,1.4074914869466515,3.169651657323674e-05,0.07503309901494544
881.5,0.005,1.406693136698809,4.9469639520888344e-05,0.08386575989934178
882.0,0.004,1.4058956916099774,3.162468313099995e-05,0.07499055118106487
882.5,0.004,1.405099150141643,3.158885794766028e-05,0.07496930438897358
883.0,0.003,1.404303510758777,1.774861515296484e-05,0.06490693747417399
883.5,0.004,1.4035087719298245,3.1517389966143426e-05,0.07492686492653551
884.0,0.004,1.4027149321266967,3.148174689297926e-05,0.07490567220515938
884.5,0.004,1.4019219898247597,3.144616424886742e-05,0.07488449745640975
885.0,0.003,1.4011299435028248,1.7668486067222063e-05,0.06483355481931
885.5,0.003,1.4003387916431396,1.7648538582425112e-05,0.06481524801255811
886.0,0.003,1.399548532731377,1.7628624859234957e-05,0.06479695670472596
886.5,0.005,1.3987591652566271,4.8913180059735416e-05,0.08362891740470599
887.0,0.006,1.3979706877113867,7.035559357320892e-05,0.09158506497387181
887.5,0.005,1.3971830985915492,4.880301527474707e-05,0.0835817892423807
888.0,0.005,1.3963963963963963,4.8748072396721046e-05,0.08355825501996784
888.5,0.003,1.3956105796285876,1.752956000974118e-05,0.06470573188586744
889.0,0.006,1.3948256467941507,7.003938905836995e-05,0.09148198664636062
889.5,0.006,1.3940415964024733,6.996067101001281e-05,0.0914562714001333
890.0,0.007,1.3932584269662922,9.511728317131678e-05,0.0987563111338412
890.5,0.003,1.3924761370016845,1.7450908129072203e-05,0.06463302879337354
891.0,0.003,1.3916947250280585,1.743132786903831e-05,0.06461489127967465
891.5,0.003,1.3909141895681436,1.7411780544678052e-05,0.06459676902682077
892.0,0.003,1.390134529147982,1.7392266082165336e-05,0.06457866201342319
892.5,0.003,1.3893557422969187,1.7372784407880798e-05,0.06456057021813513
893.0,0.003,1.3885778275475924,1.735333544841112e-05,0.06454249361965167
893.5,0.003,1.387800783435926,1.7333919130548335e-05,0.06452443219670963
894.0,0.004,1.3870246085011186,3.07813962334029e-05,0.07448555856006232
894.5,0.004,1.3862493012856345,3.074699400503856e-05,0.07446473799821321
895.0,0.005,1.3854748603351956,4.798851471552075e-05,0.08323084945905562
895.5,0.004,1.3847012841987716,3.0678362343387635e-05,0.07442314919966157
896.0,0.004,1.3839285714285714,3.064413265306122e-05,0.07440238091428449
896.5,0.004,1.3831567205800335,3.060996021897141e-05,0.07438163000580274
897.0,0.003,1.3823857302118172,1.7198912763839335e-05,0.06439842537388202
897.5,0.001,1.3816155988857939,1.908861663084551e-06,0.03717009011134886
898.0,0.001,1.3808463251670378,1.9067365737273128e-06,0.03715974064988933
898.5,0.002,1.3800779076238174,7.618460124445336e-06,0.05253718507160081
899.0,0.002,1.3793103448275863,7.609988109393581e-06,0.05252257314388902
899.5,0.003,1.3785436353529739,1.710344299114974e-05,0.0643088711303419
900.0,0.003,1.3777777777777778,1.7084444444444444e-05,0.06429100507328636
