Wavelength (nm),Absorbance
190.0,5.071
190.5,5.301
191.0,5.623
191.5,6.028
192.0,5.902
192.5,5.972
193.0,6.129
193.5,6.923
194.0,7.264
194.5,7.391
195.0,7.206
195.5,7.424
196.0,7.613
196.5,7.911
197.0,8.048
197.5,8.220
198.0,8.342
198.5,8.369
199.0,8.183
199.5,8.147
200.0,8.071
200.5,8.100
201.0,8.018
201.5,8.066
202.0,8.147
202.5,8.058
203.0,8.139
203.5,8.196
204.0,8.317
204.5,8.253
205.0,8.167
205.5,8.195
206.0,8.312
206.5,8.353
207.0,8.518
207.5,8.354
208.0,8.410
208.5,8.438
209.0,8.579
209.5,8.608
210.0,8.617
210.5,8.674
211.0,8.699
211.5,8.695
212.0,8.730
212.5,8.824
213.0,8.847
213.5,8.953
214.0,9.080
214.5,9.162
215.0,9.311
215.5,9.389
216.0,9.523
216.5,9.649
217.0,9.667
217.5,9.842
218.0,9.903
218.5,10.031
219.0,10.103
219.5,10.073
220.0,10.255
220.5,10.269
221.0,10.317
221.5,10.314
222.0,10.350
222.5,10.381
223.0,10.350
223.5,10.343
224.0,10.362
224.5,10.298
225.0,10.223
225.5,10.229
226.0,10.262
226.5,10.306
227.0,10.218
227.5,10.207
228.0,10.170
228.5,10.134
229.0,10.082
229.5,10.058
230.0,10.040
230.5,9.961
231.0,9.901
231.5,9.898
232.0,9.876
232.5,9.829
233.0,9.749
233.5,9.714
234.0,9.730
234.5,9.710
235.0,9.736
235.5,9.685
236.0,9.744
236.5,9.721
237.0,9.670
237.5,9.545
238.0,9.484
238.5,9.491
239.0,9.505
239.5,9.465
240.0,9.399
240.5,9.392
241.0,9.327
241.5,9.367
242.0,9.343
242.5,9.410
243.0,9.326
243.5,9.264
244.0,9.239
244.5,9.266
245.0,9.303
245.5,9.299
246.0,9.307
246.5,9.318
247.0,9.260
247.5,9.262
248.0,9.310
248.5,9.368
249.0,9.391
249.5,9.337
250.0,9.335
250.5,9.329
251.0,9.344
251.5,9.407
252.0,9.437
252.5,9.473
253.0,9.472
253.5,9.503
254.0,9.507
254.5,9.540
255.0,9.558
255.5,9.571
256.0,9.618
256.5,9.596
257.0,9.663
257.5,9.662
258.0,9.757
258.5,9.754
259.0,9.767
259.5,9.779
260.0,9.804
260.5,9.860
261.0,9.894
261.5,9.916
262.0,9.918
262.5,9.934
263.0,9.926
263.5,9.941
264.0,9.941
264.5,10.041
265.0,10.081
265.5,10.082
266.0,10.002
266.5,10.009
267.0,10.050
267.5,10.121
268.0,10.129
268.5,10.098
269.0,10.150
269.5,10.165
270.0,10.217
270.5,10.199
271.0,10.223
271.5,10.223
272.0,10.199
272.5,10.201
273.0,10.197
273.5,10.215
274.0,10.249
274.5,10.243
275.0,10.248
275.5,10.206
276.0,10.271
276.5,10.284
277.0,10.297
277.5,10.230
278.0,10.282
278.5,10.314
279.0,10.366
279.5,10.310
280.0,10.342
280.5,10.335
281.0,10.346
281.5,10.290
282.0,10.283
282.5,10.316
283.0,10.330
283.5,10.324
284.0,10.268
284.5,10.269
285.0,10.309
285.5,10.360
286.0,10.366
286.5,10.369
287.0,10.408
287.5,10.414
288.0,10.426
288.5,10.404
289.0,10.405
289.5,10.418
290.0,10.422
290.5,10.467
291.0,10.469
291.5,10.522
292.0,10.534
292.5,10.541
293.0,10.497
293.5,10.494
294.0,10.518
294.5,10.552
295.0,10.547
295.5,10.550
296.0,10.552
296.5,10.585
297.0,10.604
297.5,10.612
298.0,10.591
298.5,10.595
299.0,10.561
299.5,10.577
300.0,10.569
300.5,10.600
301.0,10.567
301.5,10.532
302.0,10.557
302.5,10.587
303.0,10.662
303.5,10.651
304.0,10.692
304.5,10.705
305.0,10.800
305.5,10.795
306.0,10.746
306.5,10.748
307.0,10.787
307.5,10.815
308.0,10.754
308.5,10.713
309.0,10.748
309.5,10.726
310.0,10.716
310.5,10.711
311.0,10.812
311.5,10.818
312.0,10.763
312.5,10.627
313.0,10.650
313.5,10.651
314.0,10.744
314.5,10.710
315.0,10.698
315.5,10.579
316.0,10.544
316.5,10.570
317.0,10.608
317.5,10.543
318.0,10.494
318.5,10.430
319.0,10.416
319.5,10.370
320.0,10.370
320.5,10.361
321.0,10.347
321.5,10.271
322.0,10.219
322.5,10.136
323.0,10.131
323.5,10.126
324.0,10.129
324.5,10.081
325.0,10.043
325.5,9.984
326.0,9.931
326.5,9.859
327.0,9.762
327.5,9.718
328.0,9.668
328.5,9.661
329.0,9.603
329.5,9.542
330.0,9.459
330.5,9.360
331.0,9.275
331.5,9.184
332.0,9.129
332.5,9.045
333.0,8.985
333.5,8.879
334.0,8.782
334.5,8.678
335.0,8.573
335.5,8.497
336.0,8.397
336.5,8.307
337.0,8.168
337.5,8.067
338.0,7.933
338.5,7.826
339.0,7.684
339.5,7.588
340.0,7.459
340.5,7.333
341.0,7.225
341.5,7.101
342.0,6.969
342.5,6.821
343.0,6.689
343.5,6.561
344.0,6.404
344.5,6.269
345.0,6.116
345.5,5.964
346.0,5.808
346.5,5.672
347.0,5.548
347.5,5.402
348.0,5.238
348.5,5.071
349.0,4.929
349.5,4.779
350.0,4.651
350.5,4.515
351.0,4.386
351.5,4.254
352.0,4.116
352.5,3.988
353.0,3.854
353.5,3.724
354.0,3.605
354.5,3.488
355.0,3.374
355.5,3.258
356.0,3.142
356.5,3.032
357.0,2.923
357.5,2.829
358.0,2.728
358.5,2.630
359.0,2.531
359.5,2.444
360.0,2.366
360.5,2.291
361.0,2.214
361.5,2.137
362.0,2.058
362.5,1.992
363.0,1.922
363.5,1.857
364.0,1.788
364.5,1.724
365.0,1.658
365.5,1.599
366.0,1.547
366.5,1.500
367.0,1.451
367.5,1.402
368.0,1.356
368.5,1.313
369.0,1.267
369.5,1.224
370.0,1.184
370.5,1.142
371.0,1.102
371.5,1.066
372.0,1.034
372.5,1.004
373.0,0.972
373.5,0.940
374.0,0.909
374.5,0.879
375.0,0.853
375.5,0.828
376.0,0.803
376.5,0.780
377.0,0.756
377.5,0.732
378.0,0.709
378.5,0.689
379.0,0.670
379.5,0.651
380.0,0.632
380.5,0.615
381.0,0.598
381.5,0.581
382.0,0.564
382.5,0.549
383.0,0.535
383.5,0.522
384.0,0.508
384.5,0.494
385.0,0.481
385.5,0.468
386.0,0.456
386.5,0.445
387.0,0.434
387.5,0.423
388.0,0.413
388.5,0.403
389.0,0.393
389.5,0.384
390.0,0.375
390.5,0.367
391.0,0.358
391.5,0.351
392.0,0.342
392.5,0.335
393.0,0.327
393.5,0.321
394.0,0.313
394.5,0.307
395.0,0.300
395.5,0.294
396.0,0.289
396.5,0.283
397.0,0.277
397.5,0.272
398.0,0.267
398.5,0.263
399.0,0.259
399.5,0.254
400.0,0.249
400.5,0.244
401.0,0.240
401.5,0.236
402.0,0.232
402.5,0.228
403.0,0.224
403.5,0.220
404.0,0.217
404.5,0.214
405.0,0.211
405.5,0.207
406.0,0.204
406.5,0.201
407.0,0.198
407.5,0.195
408.0,0.192
408.5,0.190
409.0,0.187
409.5,0.184
410.0,0.181
410.5,0.179
411.0,0.177
411.5,0.175
412.0,0.173
412.5,0.170
413.0,0.169
413.5,0.167
414.0,0.164
414.5,0.163
415.0,0.161
415.5,0.159
416.0,0.157
416.5,0.155
417.0,0.153
417.5,0.151
418.0,0.150
418.5,0.148
419.0,0.147
419.5,0.145
420.0,0.144
420.5,0.142
421.0,0.140
421.5,0.138
422.0,0.137
422.5,0.136
423.0,0.135
423.5,0.133
424.0,0.132
424.5,0.130
425.0,0.129
425.5,0.128
426.0,0.128
426.5,0.126
427.0,0.124
427.5,0.123
428.0,0.122
428.5,0.122
429.0,0.120
429.5,0.119
430.0,0.118
430.5,0.117
431.0,0.116
431.5,0.115
432.0,0.114
432.5,0.113
433.0,0.112
433.5,0.111
434.0,0.110
434.5,0.109
435.0,0.108
435.5,0.107
436.0,0.106
436.5,0.105
437.0,0.104
437.5,0.103
438.0,0.103
438.5,0.102
439.0,0.101
439.5,0.100
440.0,0.099
440.5,0.099
441.0,0.098
441.5,0.097
442.0,0.096
442.5,0.095
443.0,0.095
443.5,0.094
444.0,0.093
444.5,0.093
445.0,0.092
445.5,0.091
446.0,0.090
446.5,0.090
447.0,0.089
447.5,0.088
448.0,0.088
448.5,0.087
449.0,0.086
449.5,0.085
450.0,0.085
450.5,0.084
451.0,0.083
451.5,0.083
452.0,0.082
452.5,0.082
453.0,0.081
453.5,0.081
454.0,0.080
454.5,0.079
455.0,0.078
455.5,0.078
456.0,0.077
456.5,0.077
457.0,0.076
457.5,0.076
458.0,0.075
458.5,0.075
459.0,0.074
459.5,0.074
460.0,0.073
460.5,0.072
461.0,0.072
461.5,0.071
462.0,0.071
462.5,0.071
463.0,0.070
463.5,0.070
464.0,0.069
464.5,0.069
465.0,0.068
465.5,0.068
466.0,0.067
466.5,0.067
467.0,0.066
467.5,0.066
468.0,0.065
468.5,0.065
469.0,0.064
469.5,0.064
470.0,0.063
470.5,0.063
471.0,0.063
471.5,0.062
472.0,0.062
472.5,0.061
473.0,0.061
473.5,0.060
474.0,0.060
474.5,0.060
475.0,0.059
475.5,0.059
476.0,0.059
476.5,0.058
477.0,0.058
477.5,0.057
478.0,0.057
478.5,0.057
479.0,0.056
479.5,0.056
480.0,0.055
480.5,0.055
481.0,0.055
481.5,0.054
482.0,0.054
482.5,0.054
483.0,0.053
483.5,0.053
484.0,0.053
484.5,0.052
485.0,0.052
485.5,0.051
486.0,0.051
486.5,0.051
487.0,0.051
487.5,0.050
488.0,0.050
488.5,0.050
489.0,0.049
489.5,0.049
490.0,0.049
490.5,0.048
491.0,0.048
491.5,0.048
492.0,0.047
492.5,0.047
493.0,0.047
493.5,0.047
494.0,0.047
494.5,0.046
495.0,0.046
495.5,0.046
496.0,0.045
496.5,0.045
497.0,0.045
497.5,0.044
498.0,0.044
498.5,0.044
499.0,0.044
499.5,0.043
500.0,0.043
500.5,0.043
501.0,0.043
501.5,0.042
502.0,0.042
502.5,0.042
503.0,0.042
503.5,0.042
504.0,0.041
504.5,0.041
505.0,0.041
505.5,0.040
506.0,0.040
506.5,0.040
507.0,0.040
507.5,0.040
508.0,0.039
508.5,0.039
509.0,0.039
509.5,0.039
510.0,0.039
510.5,0.039
511.0,0.038
511.5,0.038
512.0,0.038
512.5,0.038
513.0,0.037
513.5,0.037
514.0,0.037
514.5,0.037
515.0,0.037
515.5,0.037
516.0,0.036
516.5,0.036
517.0,0.035
517.5,0.035
518.0,0.035
518.5,0.035
519.0,0.035
519.5,0.035
520.0,0.035
520.5,0.035
521.0,0.034
521.5,0.034
522.0,0.034
522.5,0.034
523.0,0.034
523.5,0.034
524.0,0.034
524.5,0.033
525.0,0.033
525.5,0.033
526.0,0.033
526.5,0.033
527.0,0.032
527.5,0.032
528.0,0.032
528.5,0.032
529.0,0.032
529.5,0.032
530.0,0.032
530.5,0.032
531.0,0.032
531.5,0.031
532.0,0.031
532.5,0.031
533.0,0.031
533.5,0.031
534.0,0.031
534.5,0.031
535.0,0.031
535.5,0.030
536.0,0.030
536.5,0.030
537.0,0.030
537.5,0.030
538.0,0.030
538.5,0.030
539.0,0.029
539.5,0.030
540.0,0.030
540.5,0.029
541.0,0.029
541.5,0.029
542.0,0.029
542.5,0.029
543.0,0.029
543.5,0.029
544.0,0.029
544.5,0.028
545.0,0.028
545.5,0.028
546.0,0.028
546.5,0.028
547.0,0.028
547.5,0.028
548.0,0.028
548.5,0.028
549.0,0.027
549.5,0.027
550.0,0.027
550.5,0.027
551.0,0.027
551.5,0.027
552.0,0.027
552.5,0.027
553.0,0.027
553.5,0.027
554.0,0.027
554.5,0.027
555.0,0.027
555.5,0.027
556.0,0.026
556.5,0.026
557.0,0.026
557.5,0.026
558.0,0.026
558.5,0.026
559.0,0.026
559.5,0.026
560.0,0.026
560.5,0.026
561.0,0.026
561.5,0.025
562.0,0.025
562.5,0.026
563.0,0.026
563.5,0.026
564.0,0.025
564.5,0.025
565.0,0.025
565.5,0.025
566.0,0.025
566.5,0.025
567.0,0.025
567.5,0.025
568.0,0.025
568.5,0.025
569.0,0.025
569.5,0.025
570.0,0.025
570.5,0.025
571.0,0.025
571.5,0.025
572.0,0.025
572.5,0.025
573.0,0.025
573.5,0.024
574.0,0.024
574.5,0.024
575.0,0.024
575.5,0.024
576.0,0.024
576.5,0.024
577.0,0.024
577.5,0.024
578.0,0.024
578.5,0.024
579.0,0.024
579.5,0.024
580.0,0.024
580.5,0.024
581.0,0.024
581.5,0.024
582.0,0.024
582.5,0.023
583.0,0.023
583.5,0.023
584.0,0.023
584.5,0.023
585.0,0.023
585.5,0.023
586.0,0.023
586.5,0.023
587.0,0.023
587.5,0.023
588.0,0.023
588.5,0.023
589.0,0.023
589.5,0.023
590.0,0.023
590.5,0.023
591.0,0.023
591.5,0.023
592.0,0.023
592.5,0.023
593.0,0.023
593.5,0.023
594.0,0.023
594.5,0.023
595.0,0.023
595.5,0.023
596.0,0.023
596.5,0.023
597.0,0.023
597.5,0.022
598.0,0.022
598.5,0.022
599.0,0.022
599.5,0.022
600.0,0.022
600.5,0.022
601.0,0.022
601.5,0.022
602.0,0.022
602.5,0.022
603.0,0.022
603.5,0.022
604.0,0.022
604.5,0.022
605.0,0.022
605.5,0.022
606.0,0.022
606.5,0.022
607.0,0.022
607.5,0.022
608.0,0.022
608.5,0.022
609.0,0.022
609.5,0.022
610.0,0.022
610.5,0.022
611.0,0.022
611.5,0.022
612.0,0.022
612.5,0.022
613.0,0.022
613.5,0.022
614.0,0.022
614.5,0.022
615.0,0.022
615.5,0.022
616.0,0.022
616.5,0.022
617.0,0.022
617.5,0.022
618.0,0.022
618.5,0.022
619.0,0.022
619.5,0.022
620.0,0.022
620.5,0.022
621.0,0.022
621.5,0.022
622.0,0.021
622.5,0.021
623.0,0.022
623.5,0.022
624.0,0.022
624.5,0.021
625.0,0.021
625.5,0.021
626.0,0.021
626.5,0.021
627.0,0.022
627.5,0.022
628.0,0.022
628.5,0.022
629.0,0.021
629.5,0.021
630.0,0.021
630.5,0.021
631.0,0.021
631.5,0.021
632.0,0.021
632.5,0.021
633.0,0.021
633.5,0.021
634.0,0.021
634.5,0.021
635.0,0.021
635.5,0.021
636.0,0.021
636.5,0.021
637.0,0.021
637.5,0.021
638.0,0.021
638.5,0.021
639.0,0.021
639.5,0.021
640.0,0.021
640.5,0.021
641.0,0.021
641.5,0.021
642.0,0.021
642.5,0.021
643.0,0.021
643.5,0.021
644.0,0.021
644.5,0.021
645.0,0.021
645.5,0.021
646.0,0.021
646.5,0.021
647.0,0.021
647.5,0.021
648.0,0.021
648.5,0.021
649.0,0.021
649.5,0.021
650.0,0.021
650.5,0.021
651.0,0.021
651.5,0.021
652.0,0.021
652.5,0.021
653.0,0.021
653.5,0.021
654.0,0.021
654.5,0.021
655.0,0.021
655.5,0.021
656.0,0.021
656.5,0.021
657.0,0.021
657.5,0.021
658.0,0.021
658.5,0.021
659.0,0.021
659.5,0.021
660.0,0.021
660.5,0.021
661.0,0.021
661.5,0.021
662.0,0.021
662.5,0.021
663.0,0.021
663.5,0.021
664.0,0.021
664.5,0.021
665.0,0.021
665.5,0.021
666.0,0.021
666.5,0.021
667.0,0.021
667.5,0.021
668.0,0.021
668.5,0.021
669.0,0.021
669.5,0.021
670.0,0.021
670.5,0.021
671.0,0.021
671.5,0.021
672.0,0.021
672.5,0.021
673.0,0.021
673.5,0.021
674.0,0.021
674.5,0.021
675.0,0.021
675.5,0.021
676.0,0.021
676.5,0.021
677.0,0.021
677.5,0.021
678.0,0.021
678.5,0.021
679.0,0.021
679.5,0.021
680.0,0.021
680.5,0.021
681.0,0.021
681.5,0.021
682.0,0.021
682.5,0.021
683.0,0.021
683.5,0.021
684.0,0.021
684.5,0.021
685.0,0.021
685.5,0.021
686.0,0.021
686.5,0.021
687.0,0.021
687.5,0.021
688.0,0.021
688.5,0.021
689.0,0.021
689.5,0.021
690.0,0.021
690.5,0.021
691.0,0.021
691.5,0.021
692.0,0.021
692.5,0.021
693.0,0.021
693.5,0.021
694.0,0.021
694.5,0.021
695.0,0.021
695.5,0.021
696.0,0.021
696.5,0.021
697.0,0.021
697.5,0.021
698.0,0.021
698.5,0.021
699.0,0.021
699.5,0.021
700.0,0.021
700.5,0.021
701.0,0.021
701.5,0.021
702.0,0.021
702.5,0.021
703.0,0.021
703.5,0.021
704.0,0.021
704.5,0.021
705.0,0.021
705.5,0.021
706.0,0.021
706.5,0.021
707.0,0.021
707.5,0.021
708.0,0.021
708.5,0.021
709.0,0.021
709.5,0.021
710.0,0.021
710.5,0.021
711.0,0.021
711.5,0.021
712.0,0.021
712.5,0.021
713.0,0.021
713.5,0.021
714.0,0.021
714.5,0.021
715.0,0.021
715.5,0.021
716.0,0.021
716.5,0.021
717.0,0.021
717.5,0.022
718.0,0.021
718.5,0.021
719.0,0.021
719.5,0.021
720.0,0.021
720.5,0.021
721.0,0.021
721.5,0.021
722.0,0.021
722.5,0.021
723.0,0.021
723.5,0.021
724.0,0.021
724.5,0.021
725.0,0.021
725.5,0.021
726.0,0.021
726.5,0.021
727.0,0.021
727.5,0.021
728.0,0.021
728.5,0.021
729.0,0.021
729.5,0.021
730.0,0.021
730.5,0.021
731.0,0.021
731.5,0.021
732.0,0.021
732.5,0.021
733.0,0.021
733.5,0.021
734.0,0.021
734.5,0.021
735.0,0.021
735.5,0.021
736.0,0.021
736.5,0.021
737.0,0.021
737.5,0.021
738.0,0.021
738.5,0.021
739.0,0.021
739.5,0.021
740.0,0.021
740.5,0.021
741.0,0.022
741.5,0.021
742.0,0.021
742.5,0.021
743.0,0.022
743.5,0.021
744.0,0.022
744.5,0.021
745.0,0.021
745.5,0.021
746.0,0.021
746.5,0.021
747.0,0.021
747.5,0.021
748.0,0.021
748.5,0.021
749.0,0.021
749.5,0.021
750.0,0.021
750.5,0.021
751.0,0.021
751.5,0.021
752.0,0.021
752.5,0.021
753.0,0.021
753.5,0.021
754.0,0.021
754.5,0.021
755.0,0.021
755.5,0.021
756.0,0.021
756.5,0.021
757.0,0.021
757.5,0.021
758.0,0.021
758.5,0.021
759.0,0.021
759.5,0.021
760.0,0.021
760.5,0.021
761.0,0.021
761.5,0.021
762.0,0.021
762.5,0.021
763.0,0.021
763.5,0.021
764.0,0.021
764.5,0.021
765.0,0.021
765.5,0.021
766.0,0.021
766.5,0.021
767.0,0.021
767.5,0.021
768.0,0.022
768.5,0.021
769.0,0.021
769.5,0.021
770.0,0.021
770.5,0.021
771.0,0.021
771.5,0.021
772.0,0.022
772.5,0.021
773.0,0.021
773.5,0.021
774.0,0.022
774.5,0.021
775.0,0.021
775.5,0.021
776.0,0.021
776.5,0.021
777.0,0.021
777.5,0.021
778.0,0.022
778.5,0.022
779.0,0.021
779.5,0.022
780.0,0.022
780.5,0.022
781.0,0.022
781.5,0.021
782.0,0.021
782.5,0.021
783.0,0.021
783.5,0.021
784.0,0.021
784.5,0.022
785.0,0.022
785.5,0.022
786.0,0.022
786.5,0.021
787.0,0.022
787.5,0.022
788.0,0.022
788.5,0.021
789.0,0.021
789.5,0.021
790.0,0.022
790.5,0.021
791.0,0.021
791.5,0.021
792.0,0.021
792.5,0.021
793.0,0.021
793.5,0.022
794.0,0.022
794.5,0.022
795.0,0.022
795.5,0.022
796.0,0.022
796.5,0.022
797.0,0.022
797.5,0.022
798.0,0.022
798.5,0.022
799.0,0.022
799.5,0.022
800.0,0.021
800.5,0.021
801.0,0.021
801.5,0.021
802.0,0.021
802.5,0.021
803.0,0.022
803.5,0.022
804.0,0.022
804.5,0.022
805.0,0.022
805.5,0.022
806.0,0.022
806.5,0.022
807.0,0.022
807.5,0.022
808.0,0.022
808.5,0.022
809.0,0.022
809.5,0.021
810.0,0.021
810.5,0.022
811.0,0.022
811.5,0.022
812.0,0.022
812.5,0.022
813.0,0.021
813.5,0.021
814.0,0.021
814.5,0.022
815.0,0.022
815.5,0.021
816.0,0.022
816.5,0.021
817.0,0.022
817.5,0.022
818.0,0.022
818.5,0.022
819.0,0.022
819.5,0.022
820.0,0.022
820.5,0.022
821.0,0.022
821.5,0.022
822.0,0.022
822.5,0.022
823.0,0.022
823.5,0.022
824.0,0.022
824.5,0.021
825.0,0.021
825.5,0.022
826.0,0.022
826.5,0.022
827.0,0.022
827.5,0.022
828.0,0.021
828.5,0.021
829.0,0.022
829.5,0.022
830.0,0.022
830.5,0.022
831.0,0.022
831.5,0.022
832.0,0.022
832.5,0.022
833.0,0.022
833.5,0.022
834.0,0.022
834.5,0.022
835.0,0.023
835.5,0.022
836.0,0.022
836.5,0.022
837.0,0.022
837.5,0.022
838.0,0.022
838.5,0.022
839.0,0.022
839.5,0.022
840.0,0.023
840.5,0.023
841.0,0.022
841.5,0.022
842.0,0.022
842.5,0.022
843.0,0.022
843.5,0.022
844.0,0.022
844.5,0.022
845.0,0.022
845.5,0.022
846.0,0.022
846.5,0.021
847.0,0.021
847.5,0.021
848.0,0.021
848.5,0.022
849.0,0.022
849.5,0.023
850.0,0.022
850.5,0.022
851.0,0.022
851.5,0.021
852.0,0.022
852.5,0.022
853.0,0.022
853.5,0.022
854.0,0.022
854.5,0.021
855.0,0.022
855.5,0.022
856.0,0.022
856.5,0.022
857.0,0.022
857.5,0.021
858.0,0.021
858.5,0.021
859.0,0.022
859.5,0.022
860.0,0.023
860.5,0.022
861.0,0.023
861.5,0.022
862.0,0.023
862.5,0.023
863.0,0.023
863.5,0.022
864.0,0.022
864.5,0.023
865.0,0.023
865.5,0.022
866.0,0.023
866.5,0.022
867.0,0.022
867.5,0.021
868.0,0.021
868.5,0.020
869.0,0.020
869.5,0.020
870.0,0.020
870.5,0.021
871.0,0.021
871.5,0.022
872.0,0.021
872.5,0.022
873.0,0.023
873.5,0.024
874.0,0.023
874.5,0.024
875.0,0.024
875.5,0.024
876.0,0.022
876.5,0.020
877.0,0.018
877.5,0.020
878.0,0.022
878.5,0.024
879.0,0.022
879.5,0.021
880.0,0.021
880.5,0.022
881.0,0.023
881.5,0.024
882.0,0.026
882.5,0.024
883.0,0.023
883.5,0.022
884.0,0.022
884.5,0.021
885.0,0.019
885.5,0.018
886.0,0.020
886.5,0.022
887.0,0.025
887.5,0.025
888.0,0.022
888.5,0.021
889.0,0.018
889.5,0.019
890.0,0.018
890.5,0.020
891.0,0.021
891.5,0.021
892.0,0.021
892.5,0.020
893.0,0.021
893.5,0.024
894.0,0.025
894.5,0.024
895.0,0.023
895.5,0.024
896.0,0.028
896.5,0.029
897.0,0.027
897.5,0.023
898.0,0.020
898.5,0.022
899.0,0.022
899.5,0.027
900.0,0.029
