Wavelength (nm),Absorbance
190.0,11.459
190.5,11.198
191.0,11.001
191.5,12.305
192.0,13.148
192.5,14.004
193.0,13.226
193.5,12.733
194.0,12.233
194.5,12.424
195.0,12.719
195.5,13.109
196.0,13.372
196.5,13.676
197.0,13.903
197.5,13.984
198.0,14.457
198.5,14.906
199.0,15.105
199.5,15.065
200.0,14.959
200.5,15.005
201.0,14.509
201.5,14.263
202.0,14.004
202.5,14.257
203.0,14.665
203.5,14.969
204.0,14.998
204.5,14.779
205.0,14.822
205.5,14.824
206.0,15.169
206.5,14.765
207.0,15.128
207.5,15.119
208.0,15.338
208.5,15.134
209.0,15.091
209.5,15.217
210.0,15.184
210.5,15.290
211.0,15.217
211.5,15.482
212.0,15.507
212.5,15.723
213.0,15.569
213.5,15.631
214.0,15.419
214.5,15.606
215.0,15.442
215.5,15.818
216.0,15.754
216.5,15.892
217.0,15.827
217.5,15.723
218.0,15.523
218.5,15.209
219.0,15.353
219.5,15.538
220.0,15.657
220.5,15.496
221.0,15.562
221.5,15.512
222.0,15.688
222.5,15.624
223.0,15.794
223.5,15.604
224.0,15.530
224.5,15.256
225.0,15.262
225.5,15.217
226.0,15.330
226.5,15.507
227.0,15.415
227.5,15.541
228.0,15.378
228.5,15.450
229.0,15.296
229.5,15.333
230.0,15.195
230.5,15.168
231.0,15.158
231.5,15.322
232.0,15.389
232.5,15.408
233.0,15.398
233.5,15.309
234.0,15.161
234.5,15.034
235.0,15.050
235.5,14.978
236.0,15.001
236.5,14.924
237.0,15.030
237.5,14.993
238.0,15.036
238.5,15.026
239.0,14.985
239.5,15.024
240.0,15.032
240.5,14.932
241.0,14.833
241.5,14.689
242.0,14.853
242.5,14.878
243.0,14.816
243.5,14.728
244.0,14.739
244.5,14.843
245.0,14.865
245.5,14.869
246.0,14.694
246.5,14.669
247.0,14.616
247.5,14.760
248.0,14.734
248.5,14.701
249.0,14.659
249.5,14.640
250.0,14.575
250.5,14.591
251.0,14.634
251.5,14.653
252.0,14.615
252.5,14.587
253.0,14.591
253.5,14.490
254.0,14.453
254.5,14.420
255.0,14.525
255.5,14.529
256.0,14.601
256.5,14.619
257.0,14.595
257.5,14.528
258.0,14.414
258.5,14.400
259.0,14.407
259.5,14.479
260.0,14.448
260.5,14.356
261.0,14.231
261.5,14.287
262.0,14.375
262.5,14.520
263.0,14.473
263.5,14.457
264.0,14.391
264.5,14.376
265.0,14.376
265.5,14.371
266.0,14.347
266.5,14.290
267.0,14.314
267.5,14.266
268.0,14.251
268.5,14.215
269.0,14.222
269.5,14.184
270.0,14.040
270.5,14.035
271.0,13.972
271.5,14.112
272.0,14.036
272.5,14.093
273.0,13.958
273.5,14.000
274.0,13.922
274.5,13.890
275.0,13.896
275.5,13.859
276.0,13.927
276.5,13.887
277.0,13.965
277.5,13.864
278.0,13.889
278.5,13.868
279.0,14.004
279.5,13.931
280.0,13.903
280.5,13.861
281.0,13.854
281.5,13.836
282.0,13.755
282.5,13.705
283.0,13.768
283.5,13.728
284.0,13.802
284.5,13.752
285.0,13.787
285.5,13.775
286.0,13.754
286.5,13.743
287.0,13.687
287.5,13.729
288.0,13.667
288.5,13.680
289.0,13.566
289.5,13.663
290.0,13.689
290.5,13.687
291.0,13.631
291.5,13.637
292.0,13.723
292.5,13.771
293.0,13.750
293.5,13.624
294.0,13.598
294.5,13.621
295.0,13.679
295.5,13.680
296.0,13.682
296.5,13.700
297.0,13.674
297.5,13.551
298.0,13.534
298.5,13.503
299.0,13.491
299.5,13.487
300.0,13.541
300.5,13.639
301.0,13.697
301.5,13.713
302.0,13.661
302.5,13.620
303.0,13.572
303.5,13.597
304.0,13.611
304.5,13.612
305.0,13.661
305.5,13.704
306.0,13.763
306.5,13.775
307.0,13.629
307.5,13.549
308.0,13.486
308.5,13.572
309.0,13.530
309.5,13.504
310.0,13.450
310.5,13.467
311.0,13.440
311.5,13.525
312.0,13.535
312.5,13.616
313.0,13.521
313.5,13.512
314.0,13.390
314.5,13.318
315.0,13.317
315.5,13.326
316.0,13.355
316.5,13.307
317.0,13.382
317.5,13.450
318.0,13.458
318.5,13.260
319.0,13.162
319.5,13.086
320.0,13.222
320.5,13.242
321.0,13.264
321.5,13.206
322.0,13.157
322.5,13.135
323.0,13.094
323.5,13.049
324.0,13.037
324.5,13.025
325.0,13.058
325.5,12.921
326.0,12.881
326.5,12.815
327.0,12.878
327.5,12.840
328.0,12.788
328.5,12.716
329.0,12.625
329.5,12.612
330.0,12.614
330.5,12.602
331.0,12.516
331.5,12.514
332.0,12.476
332.5,12.465
333.0,12.329
333.5,12.249
334.0,12.148
334.5,12.113
335.0,12.076
335.5,12.037
336.0,12.039
336.5,12.036
337.0,12.016
337.5,11.910
338.0,11.853
338.5,11.838
339.0,11.829
339.5,11.726
340.0,11.651
340.5,11.589
341.0,11.601
341.5,11.470
342.0,11.408
342.5,11.273
343.0,11.227
343.5,11.094
344.0,11.042
344.5,10.963
345.0,10.899
345.5,10.798
346.0,10.759
346.5,10.681
347.0,10.659
347.5,10.556
348.0,10.466
348.5,10.329
349.0,10.240
349.5,10.153
350.0,10.035
350.5,9.918
351.0,9.815
351.5,9.730
352.0,9.631
352.5,9.483
353.0,9.394
353.5,9.303
354.0,9.237
354.5,9.101
355.0,8.967
355.5,8.819
356.0,8.681
356.5,8.537
357.0,8.433
357.5,8.324
358.0,8.201
358.5,8.098
359.0,7.941
359.5,7.826
360.0,7.683
360.5,7.571
361.0,7.399
361.5,7.238
362.0,7.079
362.5,6.981
363.0,6.873
363.5,6.758
364.0,6.599
364.5,6.438
365.0,6.289
365.5,6.131
366.0,5.986
366.5,5.869
367.0,5.744
367.5,5.608
368.0,5.449
368.5,5.323
369.0,5.184
369.5,5.051
370.0,4.904
370.5,4.763
371.0,4.635
371.5,4.522
372.0,4.382
372.5,4.236
373.0,4.084
373.5,3.967
374.0,3.849
374.5,3.740
375.0,3.622
375.5,3.507
376.0,3.384
376.5,3.271
377.0,3.160
377.5,3.053
378.0,2.939
378.5,2.836
379.0,2.735
379.5,2.647
380.0,2.555
380.5,2.463
381.0,2.366
381.5,2.280
382.0,2.198
382.5,2.125
383.0,2.044
383.5,1.963
384.0,1.884
384.5,1.813
385.0,1.741
385.5,1.671
386.0,1.603
386.5,1.538
387.0,1.475
387.5,1.414
388.0,1.357
388.5,1.302
389.0,1.249
389.5,1.196
390.0,1.146
390.5,1.096
391.0,1.050
391.5,1.005
392.0,0.963
392.5,0.920
393.0,0.878
393.5,0.837
394.0,0.799
394.5,0.764
395.0,0.729
395.5,0.696
396.0,0.664
396.5,0.635
397.0,0.607
397.5,0.579
398.0,0.553
398.5,0.526
399.0,0.502
399.5,0.479
400.0,0.457
400.5,0.435
401.0,0.414
401.5,0.395
402.0,0.375
402.5,0.358
403.0,0.341
403.5,0.323
404.0,0.306
404.5,0.290
405.0,0.276
405.5,0.263
406.0,0.251
406.5,0.238
407.0,0.225
407.5,0.215
408.0,0.204
408.5,0.194
409.0,0.184
409.5,0.174
410.0,0.165
410.5,0.156
411.0,0.147
411.5,0.138
412.0,0.131
412.5,0.124
413.0,0.118
413.5,0.111
414.0,0.106
414.5,0.100
415.0,0.095
415.5,0.090
416.0,0.085
416.5,0.080
417.0,0.075
417.5,0.071
418.0,0.067
418.5,0.063
419.0,0.060
419.5,0.056
420.0,0.053
420.5,0.050
421.0,0.047
421.5,0.045
422.0,0.042
422.5,0.039
423.0,0.036
423.5,0.034
424.0,0.032
424.5,0.030
425.0,0.028
425.5,0.027
426.0,0.025
426.5,0.023
427.0,0.022
427.5,0.020
428.0,0.019
428.5,0.018
429.0,0.016
429.5,0.015
430.0,0.014
430.5,0.013
431.0,0.012
431.5,0.011
432.0,0.011
432.5,0.010
433.0,0.009
433.5,0.008
434.0,0.008
434.5,0.007
435.0,0.006
435.5,0.006
436.0,0.005
436.5,0.005
437.0,0.005
437.5,0.004
438.0,0.004
438.5,0.003
439.0,0.003
439.5,0.003
440.0,0.002
440.5,0.002
441.0,0.002
441.5,0.002
442.0,0.001
442.5,0.001
443.0,0.001
443.5,0.001
444.0,0.001
444.5,0.001
445.0,0.001
445.5,0.001
446.0,0.000
446.5,0.000
447.0,0.000
447.5,0.000
448.0,0.000
448.5,0.000
449.0,0.000
449.5,0.000
450.0,0.000
450.5,0.000
451.0,0.000
451.5,0.000
452.0,0.000
452.5,0.000
453.0,0.000
453.5,0.000
454.0,0.000
454.5,0.000
455.0,0.000
455.5,0.000
456.0,0.000
456.5,0.000
457.0,0.000
457.5,0.000
458.0,0.000
458.5,0.000
459.0,0.000
459.5,0.000
460.0,0.000
460.5,0.000
461.0,0.000
461.5,0.000
462.0,0.001
462.5,0.001
463.0,0.001
463.5,0.001
464.0,0.001
464.5,0.001
465.0,0.001
465.5,0.001
466.0,0.001
466.5,0.001
467.0,0.001
467.5,0.001
468.0,0.001
468.5,0.001
469.0,0.001
469.5,0.001
470.0,0.001
470.5,0.001
471.0,0.001
471.5,0.001
472.0,0.001
472.5,0.001
473.0,0.001
473.5,0.001
474.0,0.001
474.5,0.001
475.0,0.001
475.5,0.001
476.0,0.001
476.5,0.001
477.0,0.001
477.5,0.002
478.0,0.002
478.5,0.002
479.0,0.002
479.5,0.002
480.0,0.002
480.5,0.002
481.0,0.002
481.5,0.002
482.0,0.002
482.5,0.002
483.0,0.002
483.5,0.002
484.0,0.002
484.5,0.002
485.0,0.002
485.5,0.002
486.0,0.002
486.5,0.002
487.0,0.002
487.5,0.002
488.0,0.002
488.5,0.002
489.0,0.002
489.5,0.002
490.0,0.002
490.5,0.002
491.0,0.002
491.5,0.002
492.0,0.002
492.5,0.002
493.0,0.002
493.5,0.002
494.0,0.002
494.5,0.002
495.0,0.002
495.5,0.002
496.0,0.002
496.5,0.002
497.0,0.002
497.5,0.002
498.0,0.002
498.5,0.002
499.0,0.002
499.5,0.002
500.0,0.002
500.5,0.002
501.0,0.002
501.5,0.002
502.0,0.002
502.5,0.002
503.0,0.002
503.5,0.002
504.0,0.002
504.5,0.002
505.0,0.002
505.5,0.002
506.0,0.002
506.5,0.002
507.0,0.002
507.5,0.002
508.0,0.002
508.5,0.002
509.0,0.002
509.5,0.002
510.0,0.002
510.5,0.002
511.0,0.002
511.5,0.002
512.0,0.002
512.5,0.002
513.0,0.002
513.5,0.002
514.0,0.002
514.5,0.002
515.0,0.002
515.5,0.002
516.0,0.002
516.5,0.002
517.0,0.002
517.5,0.002
518.0,0.002
518.5,0.002
519.0,0.002
519.5,0.002
520.0,0.002
520.5,0.002
521.0,0.002
521.5,0.002
522.0,0.002
522.5,0.002
523.0,0.002
523.5,0.002
524.0,0.002
524.5,0.002
525.0,0.002
525.5,0.002
526.0,0.002
526.5,0.002
527.0,0.002
527.5,0.002
528.0,0.002
528.5,0.002
529.0,0.002
529.5,0.002
530.0,0.002
530.5,0.002
531.0,0.002
531.5,0.002
532.0,0.002
532.5,0.002
533.0,0.002
533.5,0.002
534.0,0.002
534.5,0.002
535.0,0.002
535.5,0.002
536.0,0.002
536.5,0.002
537.0,0.002
537.5,0.002
538.0,0.002
538.5,0.002
539.0,0.002
539.5,0.002
540.0,0.002
540.5,0.002
541.0,0.002
541.5,0.002
542.0,0.002
542.5,0.002
543.0,0.002
543.5,0.002
544.0,0.002
544.5,0.002
545.0,0.002
545.5,0.002
546.0,0.002
546.5,0.002
547.0,0.002
547.5,0.002
548.0,0.002
548.5,0.002
549.0,0.002
549.5,0.002
550.0,0.002
550.5,0.002
551.0,0.002
551.5,0.002
552.0,0.002
552.5,0.002
553.0,0.002
553.5,0.002
554.0,0.002
554.5,0.002
555.0,0.002
555.5,0.002
556.0,0.002
556.5,0.002
557.0,0.002
557.5,0.002
558.0,0.002
558.5,0.002
559.0,0.002
559.5,0.002
560.0,0.002
560.5,0.002
561.0,0.002
561.5,0.002
562.0,0.002
562.5,0.002
563.0,0.002
563.5,0.002
564.0,0.002
564.5,0.002
565.0,0.002
565.5,0.002
566.0,0.002
566.5,0.002
567.0,0.002
567.5,0.002
568.0,0.002
568.5,0.002
569.0,0.002
569.5,0.002
570.0,0.002
570.5,0.002
571.0,0.002
571.5,0.002
572.0,0.002
572.5,0.002
573.0,0.002
573.5,0.002
574.0,0.002
574.5,0.002
575.0,0.002
575.5,0.002
576.0,0.002
576.5,0.002
577.0,0.002
577.5,0.002
578.0,0.002
578.5,0.002
579.0,0.002
579.5,0.002
580.0,0.002
580.5,0.002
581.0,0.002
581.5,0.002
582.0,0.002
582.5,0.002
583.0,0.002
583.5,0.002
584.0,0.002
584.5,0.002
585.0,0.002
585.5,0.002
586.0,0.002
586.5,0.002
587.0,0.002
587.5,0.002
588.0,0.002
588.5,0.002
589.0,0.002
589.5,0.002
590.0,0.002
590.5,0.002
591.0,0.002
591.5,0.002
592.0,0.002
592.5,0.002
593.0,0.002
593.5,0.002
594.0,0.002
594.5,0.002
595.0,0.002
595.5,0.002
596.0,0.002
596.5,0.002
597.0,0.002
597.5,0.002
598.0,0.002
598.5,0.002
599.0,0.002
599.5,0.002
600.0,0.002
600.5,0.002
601.0,0.002
601.5,0.002
602.0,0.002
602.5,0.002
603.0,0.002
603.5,0.002
604.0,0.002
604.5,0.002
605.0,0.002
605.5,0.002
606.0,0.002
606.5,0.002
607.0,0.002
607.5,0.002
608.0,0.002
608.5,0.002
609.0,0.002
609.5,0.002
610.0,0.002
610.5,0.002
611.0,0.002
611.5,0.002
612.0,0.002
612.5,0.002
613.0,0.002
613.5,0.002
614.0,0.002
614.5,0.002
615.0,0.002
615.5,0.002
616.0,0.002
616.5,0.002
617.0,0.002
617.5,0.002
618.0,0.002
618.5,0.002
619.0,0.002
619.5,0.002
620.0,0.002
620.5,0.002
621.0,0.002
621.5,0.002
622.0,0.002
622.5,0.002
623.0,0.002
623.5,0.002
624.0,0.002
624.5,0.002
625.0,0.002
625.5,0.002
626.0,0.002
626.5,0.002
627.0,0.002
627.5,0.002
628.0,0.002
628.5,0.002
629.0,0.002
629.5,0.002
630.0,0.002
630.5,0.002
631.0,0.002
631.5,0.002
632.0,0.002
632.5,0.002
633.0,0.002
633.5,0.002
634.0,0.002
634.5,0.002
635.0,0.002
635.5,0.002
636.0,0.002
636.5,0.002
637.0,0.002
637.5,0.002
638.0,0.002
638.5,0.002
639.0,0.002
639.5,0.002
640.0,0.002
640.5,0.002
641.0,0.002
641.5,0.002
642.0,0.002
642.5,0.002
643.0,0.002
643.5,0.002
644.0,0.002
644.5,0.002
645.0,0.002
645.5,0.002
646.0,0.002
646.5,0.002
647.0,0.002
647.5,0.002
648.0,0.002
648.5,0.002
649.0,0.002
649.5,0.002
650.0,0.002
650.5,0.002
651.0,0.002
651.5,0.002
652.0,0.002
652.5,0.002
653.0,0.002
653.5,0.002
654.0,0.002
654.5,0.002
655.0,0.002
655.5,0.002
656.0,0.002
656.5,0.002
657.0,0.002
657.5,0.002
658.0,0.002
658.5,0.002
659.0,0.002
659.5,0.002
660.0,0.002
660.5,0.002
661.0,0.002
661.5,0.002
662.0,0.002
662.5,0.002
663.0,0.002
663.5,0.002
664.0,0.002
664.5,0.002
665.0,0.002
665.5,0.002
666.0,0.002
666.5,0.002
667.0,0.002
667.5,0.002
668.0,0.002
668.5,0.002
669.0,0.002
669.5,0.002
670.0,0.002
670.5,0.002
671.0,0.002
671.5,0.002
672.0,0.002
672.5,0.002
673.0,0.002
673.5,0.002
674.0,0.002
674.5,0.002
675.0,0.002
675.5,0.002
676.0,0.002
676.5,0.002
677.0,0.002
677.5,0.002
678.0,0.002
678.5,0.002
679.0,0.002
679.5,0.002
680.0,0.002
680.5,0.002
681.0,0.002
681.5,0.002
682.0,0.002
682.5,0.002
683.0,0.002
683.5,0.002
684.0,0.002
684.5,0.002
685.0,0.002
685.5,0.002
686.0,0.002
686.5,0.002
687.0,0.002
687.5,0.002
688.0,0.002
688.5,0.002
689.0,0.002
689.5,0.002
690.0,0.002
690.5,0.002
691.0,0.002
691.5,0.002
692.0,0.002
692.5,0.002
693.0,0.002
693.5,0.002
694.0,0.002
694.5,0.002
695.0,0.002
695.5,0.002
696.0,0.002
696.5,0.002
697.0,0.002
697.5,0.002
698.0,0.002
698.5,0.002
699.0,0.002
699.5,0.002
700.0,0.002
700.5,0.002
701.0,0.002
701.5,0.002
702.0,0.002
702.5,0.002
703.0,0.002
703.5,0.002
704.0,0.002
704.5,0.002
705.0,0.002
705.5,0.002
706.0,0.002
706.5,0.002
707.0,0.002
707.5,0.002
708.0,0.002
708.5,0.002
709.0,0.002
709.5,0.002
710.0,0.002
710.5,0.002
711.0,0.002
711.5,0.002
712.0,0.002
712.5,0.002
713.0,0.002
713.5,0.002
714.0,0.002
714.5,0.002
715.0,0.002
715.5,0.002
716.0,0.002
716.5,0.002
717.0,0.002
717.5,0.002
718.0,0.002
718.5,0.002
719.0,0.002
719.5,0.002
720.0,0.002
720.5,0.002
721.0,0.002
721.5,0.002
722.0,0.002
722.5,0.002
723.0,0.002
723.5,0.002
724.0,0.002
724.5,0.002
725.0,0.002
725.5,0.002
726.0,0.002
726.5,0.002
727.0,0.002
727.5,0.002
728.0,0.002
728.5,0.002
729.0,0.002
729.5,0.002
730.0,0.002
730.5,0.002
731.0,0.002
731.5,0.002
732.0,0.002
732.5,0.002
733.0,0.002
733.5,0.002
734.0,0.002
734.5,0.002
735.0,0.002
735.5,0.002
736.0,0.002
736.5,0.002
737.0,0.002
737.5,0.002
738.0,0.002
738.5,0.002
739.0,0.002
739.5,0.002
740.0,0.002
740.5,0.002
741.0,0.002
741.5,0.002
742.0,0.002
742.5,0.002
743.0,0.002
743.5,0.002
744.0,0.002
744.5,0.002
745.0,0.002
745.5,0.002
746.0,0.002
746.5,0.002
747.0,0.002
747.5,0.002
748.0,0.002
748.5,0.002
749.0,0.002
749.5,0.002
750.0,0.002
750.5,0.002
751.0,0.002
751.5,0.002
752.0,0.002
752.5,0.002
753.0,0.002
753.5,0.002
754.0,0.002
754.5,0.002
755.0,0.002
755.5,0.002
756.0,0.002
756.5,0.002
757.0,0.002
757.5,0.002
758.0,0.002
758.5,0.002
759.0,0.002
759.5,0.002
760.0,0.002
760.5,0.002
761.0,0.002
761.5,0.002
762.0,0.002
762.5,0.002
763.0,0.002
763.5,0.002
764.0,0.002
764.5,0.002
765.0,0.002
765.5,0.002
766.0,0.002
766.5,0.002
767.0,0.002
767.5,0.002
768.0,0.002
768.5,0.002
769.0,0.002
769.5,0.002
770.0,0.002
770.5,0.002
771.0,0.002
771.5,0.002
772.0,0.002
772.5,0.002
773.0,0.002
773.5,0.002
774.0,0.002
774.5,0.002
775.0,0.002
775.5,0.002
776.0,0.001
776.5,0.001
777.0,0.002
777.5,0.002
778.0,0.002
778.5,0.002
779.0,0.002
779.5,0.002
780.0,0.002
780.5,0.001
781.0,0.002
781.5,0.002
782.0,0.002
782.5,0.002
783.0,0.002
783.5,0.002
784.0,0.001
784.5,0.001
785.0,0.001
785.5,0.002
786.0,0.002
786.5,0.002
787.0,0.001
787.5,0.001
788.0,0.002
788.5,0.002
789.0,0.002
789.5,0.002
790.0,0.002
790.5,0.001
791.0,0.001
791.5,0.001
792.0,0.001
792.5,0.001
793.0,0.001
793.5,0.001
794.0,0.001
794.5,0.001
795.0,0.002
795.5,0.002
796.0,0.002
796.5,0.002
797.0,0.001
797.5,0.002
798.0,0.002
798.5,0.002
799.0,0.002
799.5,0.001
800.0,0.001
800.5,0.001
801.0,0.001
801.5,0.001
802.0,0.001
802.5,0.001
803.0,0.001
803.5,0.001
804.0,0.001
804.5,0.001
805.0,0.001
805.5,0.002
806.0,0.002
806.5,0.001
807.0,0.001
807.5,0.001
808.0,0.001
808.5,0.001
809.0,0.001
809.5,0.001
810.0,0.001
810.5,0.001
811.0,0.001
811.5,0.001
812.0,0.001
812.5,0.001
813.0,0.001
813.5,0.002
814.0,0.001
814.5,0.002
815.0,0.001
815.5,0.001
816.0,0.001
816.5,0.001
817.0,0.001
817.5,0.001
818.0,0.001
818.5,0.001
819.0,0.001
819.5,0.001
820.0,0.001
820.5,0.001
821.0,0.001
821.5,0.001
822.0,0.001
822.5,0.001
823.0,0.001
823.5,0.001
824.0,0.001
824.5,0.002
825.0,0.002
825.5,0.001
826.0,0.001
826.5,0.001
827.0,0.001
827.5,0.001
828.0,0.001
828.5,0.001
829.0,0.001
829.5,0.001
830.0,0.001
830.5,0.001
831.0,0.002
831.5,0.002
832.0,0.001
832.5,0.001
833.0,0.001
833.5,0.001
834.0,0.001
834.5,0.001
835.0,0.001
835.5,0.001
836.0,0.001
836.5,0.001
837.0,0.001
837.5,0.001
838.0,0.001
838.5,0.001
839.0,0.001
839.5,0.001
840.0,0.001
840.5,0.002
841.0,0.001
841.5,0.001
842.0,0.001
842.5,0.001
843.0,0.001
843.5,0.001
844.0,0.001
844.5,0.001
845.0,0.001
845.5,0.001
846.0,0.001
846.5,0.001
847.0,0.001
847.5,0.001
848.0,0.001
848.5,0.001
849.0,0.001
849.5,0.001
850.0,0.001
850.5,0.001
851.0,0.001
851.5,0.001
852.0,0.001
852.5,0.001
853.0,0.001
853.5,0.002
854.0,0.001
854.5,0.001
855.0,0.001
855.5,0.001
856.0,0.001
856.5,0.001
857.0,0.001
857.5,0.001
858.0,0.001
858.5,0.001
859.0,0.001
859.5,0.001
860.0,0.001
860.5,0.001
861.0,0.001
861.5,0.001
862.0,0.001
862.5,0.001
863.0,0.001
863.5,0.001
864.0,0.001
864.5,0.001
865.0,0.001
865.5,0.001
866.0,0.001
866.5,0.001
867.0,0.001
867.5,0.001
868.0,0.001
868.5,0.001
869.0,0.001
869.5,0.002
870.0,0.001
870.5,0.001
871.0,0.001
871.5,0.001
872.0,0.001
872.5,0.001
873.0,0.002
873.5,0.002
874.0,0.001
874.5,0.001
875.0,0.001
875.5,0.001
876.0,0.001
876.5,0.001
877.0,0.001
877.5,0.001
878.0,0.001
878.5,0.001
879.0,0.001
879.5,0.001
880.0,0.001
880.5,0.001
881.0,0.001
881.5,0.002
882.0,0.001
882.5,0.001
883.0,0.001
883.5,0.001
884.0,0.001
884.5,0.001
885.0,0.001
885.5,0.000
886.0,0.001
886.5,0.001
887.0,0.002
887.5,0.001
888.0,0.001
888.5,0.000
889.0,0.001
889.5,0.002
890.0,0.002
890.5,0.001
891.0,0.001
891.5,0.002
892.0,0.002
892.5,0.002
893.0,0.001
893.5,0.001
894.0,0.001
894.5,0.001
895.0,0.002
895.5,0.001
896.0,0.001
896.5,0.001
897.0,0.001
897.5,0.001
898.0,0.001
898.5,0.001
899.0,0.002
899.5,0.002
900.0,0.003
