Wavelength (nm),Absorbance,"Energy, eV",Direct transition,Indirect transition
190.0,3.565,6.526315789473684,541.3214504155125,4.823516952336094
190.5,3.707,6.509186351706036,582.2353668657559,4.912184219445996
191.0,3.82,6.492146596858639,615.0400000000001,4.979959839195493
191.5,3.764,6.4751958224543085,594.0254380246644,4.936865106088884
192.0,3.811,6.458333333333333,605.785411501736,4.961119665290622
192.5,3.808,6.441558441558442,601.6941402975207,4.952721932983372
193.0,3.745,6.424870466321243,578.9384531128352,4.905215581029346
193.5,3.724,6.40826873385013,569.5092420354013,4.885119524111757
194.0,3.738,6.391752577319588,570.8453984057818,4.887982317277817
194.5,4.043,6.375321336760925,664.3724908611496,5.076950281864539
195.0,3.984,6.358974358974359,641.8193511005917,5.033304465870692
195.5,3.973,6.342710997442455,635.0193761265297,5.0199194010301476
196.0,3.829,6.326530612244898,586.816018367347,4.921817318256105
196.5,3.894,6.310432569974555,603.8237003438029,4.957098387916153
197.0,3.974,6.2944162436548226,625.7007038985804,5.0014008189990395
197.5,4.089,6.2784810126582276,659.0879802493191,5.066824336876057
198.0,4.155,6.262626262626263,677.1034802571168,5.101099109134434
198.5,4.132,6.246851385390428,666.2588238590436,5.080550159621815
199.0,4.114,6.231155778894473,657.1519368096766,5.063099334831567
199.5,4.061,6.215538847117794,637.1233901696596,5.024072377876871
200.0,4.135,6.2,657.255769,5.063299319613645
200.5,4.067,6.184538653366584,632.6491971169336,5.015228679057606
201.0,4.123,6.169154228855722,646.960737367887,5.043354328774862
201.5,4.134,6.153846153846154,647.1936000000003,5.043808085167397
202.0,4.28,6.138613861386139,690.2845760219587,5.125745538624862
202.5,4.238,6.1234567901234565,673.4652940563939,5.094233001791655
203.0,4.201,6.108374384236453,658.5013316896792,5.065696476120271
203.5,4.173,6.093366093366093,646.5636914294683,5.042580362038537
204.0,4.142,6.078431372549019,633.8744176855057,5.0176551042392346
204.5,4.157,6.06356968215159,635.3555012798824,5.020583548623024
205.0,4.136,6.048780487804878,625.8881201570495,5.0017752945890095
205.5,4.233,6.034063260340632,652.4034588097392,5.053928153527896
206.0,4.293,6.019417475728155,667.7758465076822,5.0834397039112185
206.5,4.329,6.004842615012106,675.7381367446604,5.098525637906257
207.0,4.321,5.990338164251208,669.9944605848443,5.087656750187602
207.5,4.352,5.975903614457831,676.370942439251,5.099718867753445
208.0,4.308,5.961538461538462,659.5809284023668,5.067771471989211
208.5,4.299,5.947242206235012,653.6814215413283,5.0564013136423736
209.0,4.24,5.9330143540669855,632.8233730912755,5.015573831701017
209.5,4.249,5.918854415274463,632.4828848685072,5.014899042902179
210.0,4.218,5.904761904761905,620.3230680816328,4.990619772561892
210.5,4.216,5.890736342042755,616.7943323632795,4.983507240694275
211.0,4.255,5.876777251184834,625.2843925338605,5.0005686880385385
211.5,4.296,5.862884160756501,634.3824681655852,5.018660215098242
212.0,4.305,5.849056603773585,634.0419019223922,5.017986516447138
212.5,4.273,5.8352941176470585,621.714916327197,4.99341684267455
213.0,4.287,5.821596244131455,622.8609882166236,4.9957164750005125
213.5,4.306,5.807962529274005,625.4544151199207,5.000908582553161
214.0,4.335,5.794392523364486,630.9486671325006,5.011855104528167
214.5,4.345,5.7808857808857805,630.9113477975014,5.01178099261617
215.0,4.343,5.767441860465116,627.402304,5.004797698209189
215.5,4.351,5.7540603248259865,626.797113658949,5.00359035826454
216.0,4.349,5.7407407407407405,623.3251975651577,4.996647023903278
216.5,4.368,5.727482678983834,625.8825284128669,5.001764122967154
217.0,4.314,5.714285714285714,607.6929306122449,4.965020500605065
217.5,4.294,5.7011494252873565,599.3064170928789,4.947801090604179
218.0,4.273,5.6880733944954125,590.7397144684788,4.930024098792915
218.5,4.313,5.675057208237987,599.1001164461247,4.947375237348632
219.0,4.325,5.662100456621005,599.6907695836202,4.948594191776675
219.5,4.332,5.649202733485193,598.8957305617964,4.946953228145366
220.0,4.351,5.636363636363637,601.417658214876,4.952152883526334
220.5,4.379,5.62358276643991,606.4235704588109,4.962425710702415
221.0,4.388,5.610859728506787,606.1666807477324,4.961900088543478
221.5,4.372,5.598194130925508,599.0405421357563,4.947252241437293
222.0,4.359,5.585585585585585,592.804046457268,4.934325441999905
222.5,4.338,5.573033707865169,584.4702835379372,4.916891317155495
223.0,4.359,5.560538116591928,587.4993389289953,4.923249501114505
223.5,4.35,5.5480984340044746,582.4609702265662,4.912659991076063
224.0,4.364,5.535714285714286,583.6020617346938,4.91506430709275
224.5,4.359,5.523385300668151,579.6747957718463,4.906774554186535
225.0,4.387,5.511111111111111,584.5391489264196,4.917036144309338
225.5,4.371,5.498891352549889,577.7126681107763,4.90261706662835
226.0,4.365,5.486725663716814,573.5813055055212,4.893828513763421
226.5,4.339,5.474613686534217,564.2690862408571,4.873843327998138
227.0,4.34,5.462555066079295,562.0450340584912,4.869033681007366
227.5,4.362,5.450549450549451,565.264733329791,4.875991868665975
228.0,4.364,5.43859649122807,563.3044215450908,4.871758931609742
228.5,4.372,5.426695842450766,562.9000251550162,4.870884336873003
229.0,4.344,5.414847161572053,553.2890035201465,4.8499583575396805
229.5,4.362,5.403050108932462,555.4555532658379,4.854699226024554
230.0,4.375,5.391304347826087,556.344517958412,4.856640456296835
230.5,4.402,5.379609544468547,560.7917130147139,4.866317007219171
231.0,4.39,5.367965367965368,555.3265673431907,4.8544173662106935
231.5,4.397,5.356371490280778,554.6950762171772,4.85303672382196
232.0,4.39,5.344827586206897,550.5495868014268,4.843943961633771
232.5,4.391,5.333333333333333,548.4339484444445,4.839283693550799
233.0,4.392,5.3218884120171674,546.331436688832,4.8346389633125035
233.5,4.386,5.310492505353319,542.5088848974502,4.826159977505891
234.0,4.379,5.299145299145299,538.4700416684929,4.817152402089564
234.5,4.394,5.287846481876333,539.8558121412432,4.820248690821315
235.0,4.419,5.276595744680851,543.6953878424624,4.828796599127434
235.5,4.46,5.265392781316348,551.4819020830234,4.845993376457598
236.0,4.449,5.254237288135593,546.4421304510197,4.83488383468675
236.5,4.425,5.2431289640591965,538.2792396157851,4.816725616636466
237.0,4.39,5.232067510548523,527.5646879951573,4.7925751294380365
237.5,4.413,5.221052631578948,530.8648827816068,4.8000526312904
238.0,4.434,5.2100840336134455,533.6798846409152,4.806403291968124
238.5,4.436,5.19916142557652,531.9241135784889,4.802445219245863
239.0,4.439,5.188284518828452,530.4175173683934,4.7990410478635726
239.5,4.451,5.177453027139875,531.0648084274387,4.800504496800267
240.0,4.481,5.166666666666667,536.0073866944444,4.811635203684225
240.5,4.478,5.155925155925156,533.0664960542183,4.805021628279404
241.0,4.492,5.145228215767635,534.1814226063601,4.807532126281448
241.5,4.499,5.134575569358178,533.6310436857289,4.806293320901508
242.0,4.511,5.12396694214876,534.2669293354278,4.807724500845806
242.5,4.546,5.11340206185567,540.3544684723138,4.821361402466722
243.0,4.565,5.102880658436214,542.6407282087758,4.826453170368621
243.5,4.571,5.092402464065708,541.8360315488111,4.8246628548784996
244.0,4.551,5.081967213114754,534.905900591239,4.809161339244635
244.5,4.553,5.071574642126789,533.1887089532077,4.805297009093534
245.0,4.565,5.061224489795919,533.8174487296961,4.806712992879684
245.5,4.579,5.05091649694501,534.9111669787333,4.809173176286253
246.0,4.581,5.040650406504065,533.2044185603809,4.805332403923284
246.5,4.598,5.0304259634888435,534.9922083267159,4.809355318555877
247.0,4.602,5.020242914979757,533.7559047091414,4.806574444938604
247.5,4.626,5.01010101010101,537.1606870743803,4.814221356847572
248.0,4.642,5.0,538.7041,4.817675788178362
248.5,4.648,4.989939637826962,537.9263555643721,4.815935987595736
249.0,4.658,4.979919678714859,538.0760285543782,4.816270949962618
249.5,4.656,4.969939879759519,535.4614549114259,4.810409554306195
250.0,4.689,4.96,540.9085153535999,4.822596810847865
250.5,4.708,4.950099800399202,543.1262811925053,4.827532481535411
251.0,4.728,4.940239043824701,545.5704798082569,4.832954603470137
251.5,4.737,4.930417495029821,545.4741334007881,4.832741217358556
252.0,4.741,4.920634920634921,544.2296508188462,4.829982418056008
252.5,4.76,4.910891089108911,546.4299697676698,4.834856935231736
253.0,4.765,4.901185770750988,545.4163314533893,4.83261318518547
253.5,4.784,4.891518737672584,547.6080010519395,4.837460660411167
254.0,4.792,4.881889763779528,547.2799728191457,4.836736063507239
254.5,4.798,4.87229862475442,546.49763171209,4.8350065978829555
255.0,4.815,4.862745098039215,548.2209051903114,4.838813661121786
255.5,4.836,4.853228962818004,550.8510045473172,4.8446068224560666
256.0,4.867,4.84375,555.7585236572265,4.855361083379896
256.5,4.881,4.834307992202729,556.7833590369687,4.857597895044578
257.0,4.878,4.824902723735408,553.9374349104452,4.851378720155882
257.5,4.899,4.815533980582524,556.5494814983504,4.85708770467178
258.0,4.904,4.8062015503875966,555.5266288324018,4.854854519251918
258.5,4.926,4.796905222437137,558.3558754396925,4.861024081993972
259.0,4.918,4.787644787644788,554.3970248267021,4.852384678241933
259.5,4.946,4.7784200385356455,558.5690525592049,4.861487993464275
260.0,4.949,4.769230769230769,557.0979777751479,4.858283964212371
260.5,4.969,4.760076775431862,559.4559647746656,4.863416648521996
261.0,4.983,4.75095785440613,560.4593644602986,4.865595851332676
261.5,5.019,4.741873804971319,566.414516539014,4.878469496384194
262.0,5.032,4.732824427480916,567.1814944117476,4.880120133673348
262.5,5.046,4.723809523809524,568.1712408032654,4.882247725908924
263.0,5.055,4.714828897338403,568.033819196461,4.881952486049576
263.5,5.089,4.705882352941177,573.5179737024224,4.893693420527859
264.0,5.094,4.696969696969697,572.4708768595043,4.8914582320984445
264.5,5.109,4.688090737240076,573.6722242359056,4.894022433189242
265.0,5.115,4.679245283018868,572.8526131719473,4.8922734615556305
265.5,5.138,4.670433145009416,575.8409149407187,4.898641189050121
266.0,5.146,4.661654135338346,575.465988490022,4.897843625561266
266.5,5.16,4.652908067542214,576.4323512702005,4.899898532471649
267.0,5.172,4.644194756554307,576.9496045448806,4.900997376136706
267.5,5.179,4.635514018691588,576.351754621015,4.899727247796936
268.0,5.207,4.626865671641791,580.4287789930942,4.9083693373908615
268.5,5.217,4.618249534450651,580.492300440061,4.908503623430367
269.0,5.24,4.609665427509293,583.4469639723054,4.914737718347612
269.5,5.239,4.601113172541744,581.062205480499,4.909707925217772
270.0,5.249,4.592592592592593,581.1242350836761,4.909838950364718
270.5,5.275,4.584103512014788,584.7278231248357,4.91743286948363
271.0,5.266,4.575645756457565,580.5859182963195,4.908701513995889
271.5,5.281,4.567219152854512,581.7495251277772,4.911159165230209
272.0,5.278,4.5588235294117645,578.954366868512,4.905249289101961
272.5,5.295,4.5504587155963305,580.5535512498949,4.908633098845601
273.0,5.315,4.542124542124542,582.8068048679038,4.91338904844629
273.5,5.312,4.53382084095064,580.022501119953,4.907510194297084
274.0,5.306,4.525547445255475,576.6027853588364,4.900260681282736
274.5,5.289,4.517304189435337,570.8287084594941,4.887946589102984
275.0,5.329,4.509090909090909,577.3902196575204,4.901932828440782
275.5,5.368,4.500907441016334,583.7476944068038,4.91537090598214
276.0,5.397,4.492753623188406,587.9359850661627,4.924164020861594
276.5,5.394,4.4846292947558775,585.1604743300559,4.918342242657906
277.0,5.387,4.4765342960288805,581.537577896232,4.910711786768552
277.5,5.385,4.468468468468468,579.0136613586559,4.905374878916259
278.0,5.38,4.460431654676259,575.8618787847419,4.898685772955668
278.5,5.392,4.452423698384201,576.3585477007177,4.89974168520011
279.0,5.363,4.444444444444445,568.1337086419754,4.882167096234577
279.5,5.366,4.43649373881932,566.7363679148491,4.879162366892956
280.0,5.366,4.428571428571429,564.7141166530613,4.874804025364947
280.5,5.408,4.420677361853833,571.545756989842,4.889480869469225
281.0,5.411,4.412811387900356,570.1456279631716,4.886483645724073
281.5,5.417,4.404973357015986,569.3826680388303,4.884848070816082
282.0,5.399,4.397163120567376,563.6010695840249,4.872400197843283
282.5,5.407,4.389380530973451,563.2733514279895,4.871691752458631
283.0,5.394,4.381625441696113,558.5890056512131,4.8615314081582195
283.5,5.424,4.37389770723104,562.829180190924,4.870731070796371
284.0,5.4,4.366197183098592,555.8968458639162,4.855663166729381
284.5,5.412,4.3585237258347975,556.4093312585518,4.856781897946203
285.0,5.418,4.350877192982456,555.6888103711913,4.855208814415602
285.5,5.45,4.343257443082312,560.3045506546723,4.865259814727123
286.0,5.47,4.335664335664336,562.4526363147343,4.869916212429524
286.5,5.453,4.328097731239093,557.012720270217,4.858098077277441
287.0,5.453,4.320557491289199,555.0736,4.853864439804639
287.5,5.44,4.3130434782608695,550.5103287410208,4.843857607500362
288.0,5.466,4.305555555555555,553.8570006944445,4.851202600043279
288.5,5.478,4.298093587521664,554.36498470725,4.852314568578966
289.0,5.496,4.290657439446367,556.0849391362652,4.856073855204143
289.5,5.492,4.2832469775474955,553.35939943384,4.850112617320431
290.0,5.498,4.275862068965517,552.6584893032104,4.848576044074426
290.5,5.515,4.268502581755594,554.1688756698788,4.851885379765489
291.0,5.487,4.261168384879725,546.6726072483792,4.835393564937093
291.5,5.479,4.253859348198971,543.2113717313595,4.827721550460648
292.0,5.457,4.2465753424657535,537.0139592606492,4.81389256671102
292.5,5.5,4.239316239316239,543.647015852144,4.8286891923418835
293.0,5.484,4.2320819112627985,538.6454824820324,4.817544727489843
293.5,5.498,4.2248722316865415,539.5561289657513,4.819579600941622
294.0,5.476,4.217687074829932,533.4277298533019,4.805835455128349
294.5,5.503,4.2105263157894735,536.8732897506925,4.8135772888559165
295.0,5.49,4.203389830508475,532.5299369146798,4.8038120456041495
295.5,5.518,4.196277495769881,536.1567675584987,4.811970409474502
296.0,5.515,4.1891891891891895,533.7660924945217,4.806597380515491
296.5,5.538,4.18212478920742,536.413720436003,4.812546839525896
297.0,5.513,4.175084175084175,529.7932938180911,4.7976284826192055
297.5,5.507,4.168067226890757,526.8652840042371,4.79098593386449
298.0,5.516,4.1610738255033555,526.8164860321607,4.79087499539244
298.5,5.544,4.1541038525963145,530.3971021337843,4.798994869636137
299.0,5.562,4.147157190635451,532.0628822317424,4.802758404741423
299.5,5.545,4.140233722871453,527.0512137926038,4.791408560467601
300.0,5.534,4.133333333333334,523.2137762844445,4.782663135395035
300.5,5.526,4.126455906821963,519.9674753680083,4.775227255440119
301.0,5.555,4.119601328903655,523.6950943146323,4.783762680365718
301.5,5.574,4.112769485903814,525.5362358753496,4.787961686817038
302.0,5.607,4.105960264900662,530.0179727029515,4.798137055701725
302.5,5.602,4.099173553719008,527.3255585317943,4.792031953976714
303.0,5.623,4.092409240924092,529.5345243973902,4.797042543246429
303.5,5.647,4.085667215815486,532.3062372094918,4.803307482111681
304.0,5.669,4.078947368421052,534.6986863054015,4.808695522860534
304.5,5.664,4.072249589490969,532.0044509112088,4.802626539184246
305.0,5.639,4.065573770491803,525.590952642838,4.788086307889957
305.5,5.645,4.058919803600655,524.9873437604634,4.7867110097984495
306.0,5.648,4.052287581699346,523.8294287496261,4.784069424813765
306.5,5.685,4.045676998368679,528.9849919498414,4.7957975077901205
307.0,5.688,4.039087947882736,527.8199422211376,4.793154728105176
307.5,5.699,4.032520325203252,528.1416817777778,4.793884993753327
308.0,5.712,4.025974025974026,528.8327404958677,4.795452391210201
308.5,5.731,4.019448946515397,530.6325055213049,4.799527259270411
309.0,5.765,4.0129449838187705,535.211004911972,4.8098469655192995
309.5,5.764,4.006462035541196,533.2980649867811,4.805543379562758
310.0,5.767,4.0,532.1326240000001,4.802915781064665
310.5,5.76,3.993558776167472,529.1333417349297,4.796133708595355
311.0,5.777,3.987138263665595,530.5512320013235,4.799343470642223
311.5,5.758,3.980738362760835,525.376435220249,4.787597674489461
312.0,5.781,3.9743589743589745,527.8859717455622,4.7933046252840255
312.5,5.747,3.968,520.0267943772159,4.775363441665984
313.0,5.778,3.961661341853035,523.9740395267889,4.784399568726136
313.5,5.777,3.955342902711324,522.123228867878,4.780169029329749
314.0,5.794,3.949044585987261,523.5293763803805,4.78338419230676
314.5,5.784,3.942766295707472,520.0662122034873,4.775453931761044
315.0,5.792,3.9365079365079363,519.8515810168807,4.774961148350211
315.5,5.816,3.9302694136291603,522.5085951220736,4.781050816469868
316.0,5.854,3.9240506329113924,527.6848690273995,4.79284804735799
316.5,5.836,3.9178515007898893,522.7890807044864,4.781692311160327
317.0,5.831,3.911671924290221,520.2486102319658,4.775872589437063
317.5,5.819,3.905511811023622,516.4789496048112,4.767197628412992
318.0,5.843,3.89937106918239,519.1118023654128,4.773261480081801
318.5,5.861,3.893249607535322,520.6764555163159,4.776854189711522
319.0,5.872,3.8871473354231973,520.995650970411,4.777586122050027
319.5,5.871,3.8810641627543037,519.1893867971523,4.773439818362699
320.0,5.864,3.875,516.3347289999999,4.766864797747047
320.5,5.862,3.8689547581903274,514.3739083033774,4.7623327049369095
321.0,5.872,3.8629283489096573,514.5237181160896,4.7626794207460055
321.5,5.902,3.8569206842923793,518.1790209713895,4.771115789696748
322.0,5.899,3.8509316770186337,516.0460037961499,4.766198271445798
322.5,5.894,3.8449612403100777,513.5753791103901,4.760483331594346
323.0,5.866,3.8390092879256965,507.1336670110898,4.745485062980615
323.5,5.875,3.8330757341576507,507.1197704779401,4.745452553569175
324.0,5.875,3.8271604938271606,505.5557937052279,4.741789525193476
324.5,5.888,3.8212634822804312,506.23197242551646,4.743374261395275
325.0,5.878,3.8153846153846156,502.9627383517161,4.73569749553651
325.5,5.897,3.8095238095238093,504.6655274376417,4.739700613410292
326.0,5.886,3.803680981595092,501.2434213707704,4.731645195665955
326.5,5.893,3.797856049004594,500.8986731743466,4.73083139593709
327.0,5.872,3.7920489296636086,495.81533950939416,4.718782821341189
327.5,5.86,3.786259541984733,492.2843093992193,4.710358894609893
328.0,5.851,3.7804878048780486,489.27821476799517,4.703151512160911
328.5,5.832,3.774733637747336,484.6270522799775,4.691934204072183
329.0,5.843,3.768996960486322,484.9794615940354,4.692786937430846
329.5,5.822,3.763277693474962,480.039455729355,4.68079082329164
330.0,5.823,3.757575757575758,478.7503128595043,4.677645095169538
330.5,5.809,3.7518910741301057,475.0104846011063,4.668483185106463
331.0,5.827,3.7462235649546827,476.5159247396427,4.672177727033822
331.5,5.827,3.7405731523378583,475.0795550223059,4.668652884791575
332.0,5.828,3.7349397590361444,473.81225466686016,4.6655362945392085
332.5,5.805,3.7293233082706765,468.66715576912196,4.652818694566904
333.0,5.79,3.7237237237237237,464.8491388685983,4.643313510884265
333.5,5.756,3.7181409295352323,458.02930397110293,4.6261884084421805
334.0,5.749,3.712574850299401,455.5489542256803,4.619912641422049
334.5,5.721,3.7070254110612857,449.7746990609102,4.605202750876623
335.0,5.736,3.701492537313433,450.7876834003119,4.60779352771257
335.5,5.724,3.6959761549925485,447.566498986987,4.5995399238594885
336.0,5.742,3.6904761904761907,449.0463719387755,4.6033372987121295
336.5,5.734,3.6849925705794946,446.46622517524816,4.5967104977040725
337.0,5.723,3.679525222551929,443.43611470031436,4.58889124393515
337.5,5.702,3.674074074074074,438.8844987031001,4.577070063956895
338.0,5.702,3.668639053254438,437.5869842652568,4.573683404178388
338.5,5.689,3.6632200886262924,434.3080626327376,4.565091355514693
339.0,5.678,3.657817109144543,431.35491440554813,4.557311218879255
339.5,5.648,3.6524300441826214,425.552542098425,4.541907626707466
340.0,5.653,3.6470588235294117,425.05341244290656,4.540575242126461
340.5,5.656,3.6417033773861966,424.25594764199656,4.538444039811037
341.0,5.644,3.6363636363636362,421.2196495867768,4.530302016823643
341.5,5.635,3.6310395314787702,418.648746358435,4.523373493299317
342.0,5.621,3.625730994152047,415.3539345576417,4.514447243919089
342.5,5.643,3.6204379562043796,417.39026848441574,4.519970286059557
343.0,5.639,3.6151603498542273,415.58447899769646,4.51507355563871
343.5,5.64,3.6098981077147014,414.52248736675494,4.512186313474978
344.0,5.614,3.604651162790698,409.51640286641435,4.498501042336989
344.5,5.591,3.5994194484760524,404.98962940843154,4.486017625514818
345.0,5.571,3.5942028985507246,400.9327170056711,4.474740701741956
345.5,5.556,3.5890014471780027,397.62322281808065,4.465477806519811
346.0,5.558,3.5838150289017343,396.76034353302816,4.4630532072378255
346.5,5.537,3.578643578643579,392.63222348739924,4.451398599872797
347.0,5.531,3.5734870317002883,390.6535162122433,4.445779658545202
347.5,5.528,3.568345323741007,389.1076965241964,4.441375119221555
348.0,5.554,3.5632183908045976,391.6486494384991,4.448608202857241
348.5,5.567,3.558106169296987,392.35595459450116,4.450615355709402
349.0,5.595,3.5530085959885387,395.17794468025716,4.458596538660554
349.5,5.593,3.547925608011445,393.766394275902,4.45460973886692
350.0,5.569,3.5428571428571427,389.27966460081626,4.441865759854909
350.5,5.551,3.537803138373752,385.6646030235999,4.431517259484916
351.0,5.546,3.532763532763533,383.8741500604704,4.426364936684114
351.5,5.566,3.52773826458037,385.54858681731815,4.4311839479595445
352.0,5.567,3.522727272727273,384.5922124096075,4.428433439408651
352.5,5.561,3.517730496453901,382.675728662341,4.422906204158092
353.0,5.576,3.5127478753541075,383.6537872673723,4.425729561662631
353.5,5.578,3.5077793493635077,382.8437432776698,4.423391595908014
354.0,5.609,3.5028248587570623,386.01815111877175,4.432532530367753
354.5,5.619,3.4978843441466854,386.30377797131774,4.433352245170716
355.0,5.662,3.492957746478873,391.1347429033922,4.447148160401605
355.5,5.657,3.488045007032349,389.34671756385995,4.442057024035374
356.0,5.672,3.4831460674157304,390.31551854563816,4.444817712165711
356.5,5.65,3.4782608695652173,386.2079395085067,4.433077250967265
357.0,5.66,3.473389355742297,386.49136956743484,4.433890363270319
357.5,5.667,3.4685314685314683,386.3649338463494,4.4335276961092545
358.0,5.687,3.463687150837989,388.01076382135403,4.438241636821462
358.5,5.697,3.4588563458856347,388.2911473958789,4.439043208002199
359.0,5.719,3.4540389972144845,390.20664980563464,4.444507737091886
359.5,5.712,3.4492350486787204,388.17000968661074,4.43869694821046
360.0,5.743,3.4444444444444446,391.305544308642,4.447633578032755
360.5,5.734,3.439667128987517,388.99875327725204,4.441064210030567
361.0,5.763,3.434903047091413,391.8557335686498,4.449196136425974
361.5,5.787,3.4301521438450897,394.0340312046968,4.455366478352991
362.0,5.801,3.425414364640884,394.8498343884497,4.4576707739896815
362.5,5.827,3.420689655172414,397.2989201837812,4.464567013797604
363.0,5.815,3.4159779614325068,394.5749938149338,4.456894865904965
363.5,5.833,3.4112792297111416,395.930075559903,4.460716506000475
364.0,5.838,3.4065934065934065,395.5203053254438,4.459561896385374
364.5,5.861,3.401920438957476,397.5499908332252,4.465272185738487
365.0,5.892,3.3972602739726026,400.6665788433102,4.473997936325695
365.5,5.907,3.3926128590971274,401.6081795071123,4.476624192255447
366.0,5.922,3.387978142076503,402.5483080892233,4.479241739109093
366.5,5.929,3.383356070941337,402.40031596850116,4.478829997288487
367.0,5.923,3.3787465940054497,400.4927947375065,4.47351272226807
367.5,5.925,3.3741496598639458,399.67353602665554,4.471223181042731
368.0,5.934,3.369565217391304,399.80002500000006,4.4715769030622745
368.5,5.941,3.364993215739484,399.65706132419183,4.471177103930046
369.0,5.952,3.3604336043360434,400.05203421243965,4.472281387950464
369.5,5.952,3.3558863328822732,398.9700819444775,4.4692544628064415
370.0,5.954,3.3513513513513513,398.15995881373266,4.466983987652737
370.5,5.954,3.3468286099865048,397.0860281932902,4.463968810807223
371.0,5.935,3.3423180592991915,393.492987990497,4.453836288183559
371.5,5.928,3.3378196500672948,391.5093371668095,4.4482125495078275
372.0,5.919,3.3333333333333335,389.2729,4.441846462902562
372.5,5.914,3.3288590604026846,387.57294817062285,4.43698912363119
373.0,5.907,3.324396782841823,385.6200871306486,4.431389375381794
373.5,5.889,3.319946452476573,382.24803950904015,4.421669894806095
374.0,5.882,3.3155080213903743,380.32091239669415,4.416086296917009
374.5,5.873,3.3110814419225636,378.1461890470784,4.409759778991506
375.0,5.863,3.3066666666666666,375.8552520135112,4.403065598723992
375.5,5.847,3.3022636484687085,372.8118218116635,4.394125117995224
376.0,5.823,3.297872340425532,368.77482083521966,4.3821810366868545
376.5,5.791,3.2934926958831343,363.7646887834233,4.3672206495503785
377.0,5.75,3.2891246684350133,357.68140210653706,4.348846610712009
377.5,5.717,3.2847682119205297,352.6515871858251,4.333476649014007
378.0,5.688,3.2804232804232805,348.16005804988663,4.319611975519053
378.5,5.646,3.276089828269485,342.13172752487134,4.300790993574265
379.0,5.598,3.271767810026385,335.45227275220856,4.279644401177241
379.5,5.551,3.2674571805006587,328.9745219689593,4.2588325640906755
380.0,5.512,3.263157894736842,323.5151289085872,4.241052500947079
380.5,5.473,3.2588699080157686,318.1155835163981,4.223244606528291
381.0,5.419,3.254593175853018,311.0510853025261,4.199600030949079
381.5,5.36,3.250327653997379,303.5175899781679,4.173937736170241
382.0,5.284,3.2460732984293195,294.1997249636797,4.1415276540064925
382.5,5.225,3.241830065359477,286.9148857277116,4.115648441194081
383.0,5.145,3.2375979112271542,277.4703491059315,4.081352870466325
383.5,5.098,3.2333767926988264,271.7141752465199,4.060019074977188
384.0,5.033,3.2291666666666665,264.14037032335074,4.031426029748448
384.5,4.981,3.224967490247074,258.0380584691922,4.007937508110708
385.0,4.905,3.220779220779221,249.57434198009787,3.9746599952602333
385.5,4.823,3.216601815823606,240.6739741733831,3.9387397169294203
386.0,4.745,3.2124352331606216,232.34920695857608,3.904229140476664
386.5,4.687,3.2082794307891334,226.11755502678537,3.877783605632046
387.0,4.621,3.204134366925065,219.22666507488208,3.847896166681311
387.5,4.554,3.2,212.36649984000002,3.817433692940848
388.0,4.473,3.195876288659794,204.3514461579339,3.780893365221407
388.5,4.402,3.191763191763192,197.40647814102024,3.748351847164507
389.0,4.321,3.1876606683804627,189.71981840987038,3.7113180607530767
389.5,4.246,3.183568677792041,182.72098425518385,3.676606126022341
390.0,4.163,3.1794871794871793,175.19712619592374,3.6381595798157518
390.5,4.101,3.175416133162612,169.5824215489187,3.6086537049292873
391.0,4.019,3.1713554987212276,162.45230129054622,3.5701089268201067
391.5,3.949,3.1673052362707534,156.4422685619869,3.5366210396412567
392.0,3.864,3.163265306122449,149.39823673469385,3.496120298682118
392.5,3.793,3.159235668789809,143.59183105132058,3.461644246845673
393.0,3.722,3.1552162849872776,137.9148423000473,3.4269104179599803
393.5,3.653,3.1512071156289707,132.51139968839254,3.3928394588298207
394.0,3.583,3.1472081218274113,127.15825018938907,3.3580420933197987
394.5,3.51,3.1432192648922688,121.72046090011422,3.3215507853669592
395.0,3.441,3.1392405063291138,116.68593869956737,3.286658878295477
395.5,3.375,3.1352718078381794,111.96903853561159,3.2529282733337137
396.0,3.31,3.1313131313131315,107.42589633710848,3.2194171001357477
396.5,3.239,3.1273644388398485,102.6074472542693,3.1826927934380143
397.0,3.172,3.123425692695214,98.15868102963665,3.147619147423846
397.5,3.106,3.119496855345912,93.87976788006804,3.112741112380598
398.0,3.047,3.1155778894472363,90.12019745966012,3.0810981531177695
398.5,2.985,3.1116687578419073,86.2730972640501,3.0476763676870435
399.0,2.923,3.107769423558897,82.51923813543885,3.0139691479944943
399.5,2.86,3.1038798498122655,78.80283997048876,2.979445648180728
400.0,2.8,3.1,75.3424,2.946183972531247
400.5,2.74,3.0961298377028714,71.96800354114164,2.9126269509337903
401.0,2.68,3.092269326683292,68.67903955821173,2.878763935356844
401.5,2.62,3.088418430884184,65.47490149796295,2.8445836758507497
402.0,2.564,3.084577114427861,62.54999882181134,2.8122687854102844
402.5,2.511,3.080745341614907,59.84185208657074,2.7813219074380857
403.0,2.464,3.076923076923077,57.47972544378698,2.753459362608873
403.5,2.411,3.0731102850061958,54.89726559027346,2.721997225779251
404.0,2.356,3.0693069306930694,52.291513537888434,2.689105265457801
404.5,2.298,3.065512978986403,49.62566815782277,2.6541568954586605
405.0,2.245,3.0617283950617282,47.24610541076055,2.621751370155755
405.5,2.197,3.057953144266338,45.13586471102489,2.5919728119625685
406.0,2.151,3.0541871921182264,43.15907458079544,2.5631146385299086
406.5,2.105,3.050430504305043,41.23124709328274,2.534000041744695
407.0,2.056,3.0466830466830466,39.237449749772104,2.5027945069422586
407.5,2.005,3.042944785276074,37.223473612104335,2.470041354811398
408.0,1.958,3.0392156862745097,35.411833948481345,2.4394229468719626
408.5,1.913,3.035495716034272,33.72012599099012,2.4097517101920607
409.0,1.868,3.031784841075795,32.07380600546387,2.3797844614858685
409.5,1.825,3.028083028083028,30.539455931397324,2.350798061563674
410.0,1.776,3.024390243902439,28.8510471005354,2.3176102073409006
410.5,1.738,3.020706455542022,27.562372107334717,2.2912851895240003
411.0,1.697,3.017031630170316,26.213403415797913,2.26272019401406
411.5,1.66,3.0133657351154315,25.02187598641133,2.236556978995084
412.0,1.619,3.0097087378640777,23.74338505985484,2.2074234860130355
412.5,1.581,3.006060606060606,22.58703393851239,2.1800417010190007
413.0,1.542,3.002421307506053,21.43443372711337,2.151681588008396
413.5,1.504,2.9987908101571947,20.34173606675547,2.1237187616246227
414.0,1.466,2.995169082125604,19.280159779691473,2.0954517113014406
414.5,1.429,2.9915560916767188,18.275057754703226,2.0675912688454727
415.0,1.396,2.9879518072289155,17.398748623022204,2.042346866448392
415.5,1.361,2.984356197352587,16.497478250871392,2.0153681511319146
416.0,1.328,2.980769230769231,15.669417751479292,1.989588283656078
416.5,1.293,2.9771908763505404,14.818710326291383,1.962016259647521
417.0,1.261,2.973621103117506,14.060521652318434,1.93642356188701
417.5,1.23,2.970059880239521,13.345677736742083,1.911327719857223
418.0,1.2,2.9665071770334928,12.67223735720336,1.8867455081277367
418.5,1.17,2.962962962962963,12.017777777777775,1.8618986725025255
419.0,1.142,2.9594272076372317,11.422141400424923,1.8383867577639148
419.5,1.113,2.9558998808104886,10.823551020071852,1.8138127156192487
420.0,1.085,2.9523809523809526,10.261344444444447,1.78978583448784
420.5,1.056,2.948870392390012,9.697040432868976,1.7646549618449077
421.0,1.029,2.9453681710213777,9.185650733182502,1.7409146584427961
421.5,1.001,2.941874258600237,8.671942056345676,1.716046658124084
422.0,0.974,2.938388625592417,8.190989744165677,1.6917418601332221
422.5,0.946,2.93491124260355,7.708541530618674,1.6662610946376195
423.0,0.921,2.9314420803782504,7.289234062672904,1.6431245102025496
423.5,0.896,2.927981109799292,6.88260047810942,1.6197132691869156
424.0,0.874,2.9245283018867925,6.533328907084372,1.598761312969843
424.5,0.851,2.9210836277974086,6.179411280505992,1.5766553736487865
425.0,0.83,2.9176470588235293,5.86437447750865,1.5561642133218234
425.5,0.808,2.9142185663924796,5.544558410717468,1.534499462901543
426.0,0.787,2.9107981220657275,5.247756036059865,1.5135382790222809
426.5,0.767,2.9073856975381007,4.972743143089214,1.4933066764773146
427.0,0.747,2.9039812646370025,4.705749707397069,1.4728455467848083
427.5,0.727,2.9005847953216373,4.4467217422112775,1.4521450155541733
428.0,0.707,2.897196261682243,4.195605633679797,1.43119452102408
428.5,0.688,2.893815635939323,3.9638626202772405,1.4110085604014788
429.0,0.671,2.8904428904428903,3.761610519395135,1.39265472371553
429.5,0.653,2.887077997671711,3.5542125540568192,1.3730484086439296
430.0,0.637,2.883720930232558,3.3743126792861,1.355333992991447
430.5,0.619,2.8803716608594656,3.178910909578981,1.3352715297167124
431.0,0.603,2.8770301624129933,3.00970170487885,1.3171367385108637
431.5,0.586,2.87369640787949,2.8358091682118878,1.2976848982003995
432.0,0.572,2.8703703703703702,2.6956775034293545,1.2813476701706885
432.5,0.557,2.867052023121387,2.5502428408566944,1.2637040701361268
433.0,0.544,2.863741339491917,2.426975415091019,1.2481487446148407
433.5,0.529,2.8604382929642447,2.2896890687505076,1.2301105060026458
434.0,0.515,2.857142857142857,2.165102040816327,1.2130245551630732
434.5,0.502,2.85385500575374,2.052443653207727,1.1969274050201948
435.0,0.49,2.8505747126436782,1.950998863786498,1.1818551557595383
435.5,0.478,2.847301951779564,1.852349126398389,1.1666234752269609
436.0,0.466,2.8440366972477062,1.756476020536992,1.1512259121985706
436.5,0.454,2.84077892325315,1.6633612503919941,1.135655595309128
437.0,0.442,2.8375286041189933,1.5729866439055558,1.1199051937644522
437.5,0.431,2.834285714285714,1.49225071595102,1.1052498101592882
438.0,0.42,2.8310502283105023,1.4138187277162695,1.090431609909769
438.5,0.41,2.827822120866591,1.3442247529348135,1.076757665194589
439.0,0.399,2.8246013667425967,1.270164941028741,1.0616100721688242
439.5,0.39,2.821387940841866,1.2107509697259142,1.0489715424778348
440.0,0.38,2.8181818181818183,1.146846280991736,1.0348473756593728
440.5,0.371,2.814982973893303,1.0906850594142194,1.0219386886278528
441.0,0.362,2.811791383219955,1.036056244054689,1.0088946826728862
441.5,0.354,2.808607021517554,0.9885268695595294,0.9971192935738502
442.0,0.345,2.8054298642533935,0.9367787309842138,0.9838055210088124
442.5,0.337,2.8022598870056497,0.8918187974081523,0.9717826824557556
443.0,0.329,2.799097065462754,0.8480622148393114,0.9596368763950488
443.5,0.321,2.7959413754227733,0.8055011908196688,0.9473632785318999
444.0,0.313,2.7927927927927927,0.7641279847414981,0.9349567605745969
444.5,0.306,2.7896512935883013,0.7286898037632809,0.9239227759060928
445.0,0.299,2.7865168539325844,0.6941698149223583,0.9127806633172302
445.5,0.293,2.783389450056117,0.6650942516573644,0.9030687176878858
446.0,0.286,2.780269058295964,0.6322745762030203,0.8917157342296063
446.5,0.279,2.777155655095185,0.6003559931732313,0.8802422551613599
447.0,0.272,2.7740492170022373,0.5693327047330202,0.8686434176488121
447.5,0.266,2.7709497206703912,0.5432760555538217,0.8585293388686982
448.0,0.259,2.767857142857143,0.513909765625,0.846684711093805
448.5,0.253,2.7647714604236344,0.4892823142669297,0.8363535015094871
449.0,0.247,2.7616926503340755,0.4653123665061185,0.8259165119020909
449.5,0.242,2.7586206896551726,0.4456713436385257,0.8170594879790283
450.0,0.236,2.7555555555555555,0.42290454123456783,0.8064186946686634
450.5,0.231,2.7524972253052162,0.4042757946836724,0.7973875212501792
451.0,0.226,2.7494456762749446,0.38610654618217227,0.7882732539152508
451.5,0.221,2.7464008859357696,0.3683938813527935,0.7790729078794905
452.0,0.216,2.743362831858407,0.35113490484767795,0.769783327749709
452.5,0.211,2.7403314917127073,0.3343267402093953,0.760401173559971
453.0,0.206,2.7373068432671084,0.31796652973310136,0.7509229053058805
453.5,0.201,2.7342888643880925,0.30205143432982956,0.7413447657750114
454.0,0.196,2.7312775330396475,0.2865786333909061,0.7316627614384724
454.5,0.192,2.728272827282728,0.27439617466697164,0.7237598930849124
455.0,0.188,2.7252747252747254,0.26250421156865117,0.7157874323789489
455.5,0.183,2.722283205268935,0.2481811468802452,0.7058171339406654
456.0,0.179,2.719298245614035,0.23692983225607878,0.6976778525687284
456.5,0.175,2.7163198247535596,0.2259632975794445,0.6894606365354536
457.0,0.171,2.713347921225383,0.21527975522985507,0.6811626050581024
457.5,0.167,2.710382513661202,0.20487742912598167,0.6727807070520235
458.0,0.163,2.7074235807860263,0.19475455464236002,0.6643117067071168
458.5,0.159,2.704471101417666,0.18490937852677342,0.6557521674576523
459.0,0.156,2.701525054466231,0.17760991071809987,0.6491824924447147
459.5,0.153,2.6985854189336234,0.17047284163014867,0.6425601676861431
460.0,0.149,2.6956521739130435,0.16132446880907372,0.633760344225673
460.5,0.146,2.6927252985884906,0.15455740337946405,0.6270070921400488
461.0,0.143,2.6898047722342735,0.14794953157570312,0.6201951970384011
461.5,0.139,2.6868905742145177,0.13948565948570832,0.6111282924360628
462.0,0.136,2.683982683982684,0.13324080133430788,0.6041702119615341
462.5,0.133,2.6810810810810812,0.12715199485756026,0.5971463671360513
463.0,0.13,2.678185745140389,0.12121827316449676,0.5900543592485785
463.5,0.127,2.67529665587918,0.11543867552474081,0.58289164970572
464.0,0.124,2.6724137931034484,0.10981224732461356,0.5756555483488608
464.5,0.121,2.669537136706136,0.10433804002359102,0.5683432004884394
465.0,0.118,2.6666666666666665,0.0990151111111111,0.5609515724790034
465.5,0.116,2.6638023630504835,0.09548166380351678,0.5558786505289226
466.0,0.113,2.6609442060085837,0.09041248871778813,0.5483490633519583
466.5,0.111,2.658092175777063,0.08705345891791852,0.5431834234503609
467.0,0.108,2.6552462526766596,0.08223508017369055,0.5355059246068892
467.5,0.106,2.6524064171122994,0.07904817913008665,0.5302405871054231
468.0,0.104,2.6495726495726495,0.07593086419753087,0.5249338582674541
468.5,0.101,2.6467449306296693,0.07146064428242914,0.517031177003473
469.0,0.099,2.6439232409381663,0.06851222534903915,0.5116135268470513
469.5,0.096,2.6411075612353567,0.06428573936653433,0.5035338378685134
470.0,0.094,2.6382978723404253,0.06150399999999998,0.49799598391954925
470.5,0.092,2.6354941551540914,0.05878950039583006,0.49240782109363007
471.0,0.09,2.632696390658174,0.05614183131161506,0.4867675781717961
471.5,0.088,2.6299045599151643,0.053560586067569374,0.48107338449818077
472.0,0.086,2.6271186440677967,0.05104536052858374,0.47532326199106906
472.5,0.084,2.624338624338624,0.04859575308641975,0.4695151163109069
473.0,0.082,2.6215644820295982,0.046211364642044624,0.4636467270739944
473.5,0.08,2.6187961985216472,0.043891798588105164,0.45771573698282625
474.0,0.078,2.6160337552742616,0.04163666079153982,0.45171963972290646
474.5,0.076,2.613277133825079,0.039445559576327366,0.4456557664506385
475.0,0.075,2.610526315789474,0.03833351800554017,0.44248104330492005
475.5,0.073,2.6077812828601474,0.036239988235307136,0.43631185366523195
476.0,0.071,2.6050420168067228,0.03420945554692465,0.4300674170328151
476.5,0.069,2.602308499475341,0.03224153735538846,0.42374436452158104
477.0,0.068,2.59958071278826,0.031248159135758524,0.4204420155855046
477.5,0.066,2.5968586387434556,0.029375447383569533,0.4139959784310327
478.0,0.065,2.594142259414226,0.028432450412282692,0.4106327396371661
478.5,0.063,2.5914315569487982,0.026653889014455437,0.4040546845264565
479.0,0.062,2.5887265135699375,0.0257605850741585,0.40062581524576785
479.5,0.06,2.586027111574557,0.024075130398475118,0.3939056063252634
480.0,0.059,2.5833333333333335,0.02323084027777778,0.3904057718152572
480.5,0.057,2.5806451612903225,0.02163746097814776,0.3835319728439187
481.0,0.056,2.577962577962578,0.02084151434338545,0.3799551346750092
481.5,0.055,2.5752855659397715,0.020062089632066633,0.37635183821350926
482.0,0.054,2.5726141078838176,0.01929908920300959,0.3727212924233416
482.5,0.053,2.569948186528497,0.018552416011168082,0.369062669320551
483.0,0.051,2.567287784679089,0.01714310404691177,0.36184482450165506
483.5,0.05,2.5646328852119957,0.016443354589777016,0.3580944627617129
484.0,0.049,2.56198347107438,0.01575958609384605,0.35431227763463774
484.5,0.047,2.559339525283798,0.01446943334174689,0.3468269852366429
485.0,0.046,2.556701030927835,0.013831699861834412,0.3429405887652851
485.5,0.045,2.554067971163749,0.013209607982682128,0.33901778523016857
486.0,0.044,2.551440329218107,0.012603065250893324,0.33505727045625605
486.5,0.043,2.5488180883864335,0.012011979774571179,0.3310576653705765
487.0,0.042,2.546201232032854,0.011436260219505924,0.3270175098452373
487.5,0.041,2.5435897435897434,0.01087581580539119,0.32293525587519784
488.0,0.04,2.540983606557377,0.010330556302069336,0.31880926000085863
488.5,0.039,2.5383828045035823,0.009800392025805398,0.3146377748707865
489.0,0.039,2.5357873210633946,0.009780360570589786,0.3144768759725783
489.5,0.038,2.533197139938713,0.009266274710702066,0.3102603605323617
490.0,0.037,2.5306122448979593,0.008767073719283633,0.30599453109692093
490.5,0.036,2.5280326197757392,0.008282669808938641,0.30167726847067317
491.0,0.035,2.525458248472505,0.007812975721852824,0.29730630450183476
491.5,0.034,2.522889114954222,0.0073579047262258,0.29287920702645237
492.0,0.033,2.5203252032520327,0.006917370612730518,0.2883933628003895
492.5,0.033,2.517766497461929,0.006903332319822722,0.28824693305609284
493.0,0.032,2.5152129817444218,0.00647812745578052,0.28370198345415476
493.5,0.031,2.512664640324215,0.006067257734540927,0.2790924646959331
494.0,0.03,2.5101214574898787,0.005670638758216002,0.2744150938354091
494.5,0.029,2.507583417593529,0.0052881866353958265,0.26966631066970964
495.0,0.029,2.505050505050505,0.0052775088256300385,0.26953008115322613
495.5,0.028,2.5025227043390514,0.004909893990414233,0.26470858641436895
496.0,0.028,2.5,0.004900000000000001,0.2645751311064591
496.5,0.027,2.497482376636455,0.0045470778835534536,0.259676768635903
497.0,0.026,2.494969818913481,0.004208015092567476,0.2546943566154352
497.5,0.026,2.492462311557789,0.004199561021186334,0.2545663373278221
498.0,0.025,2.4899598393574296,0.0038749375010080477,0.24949748692909862
498.5,0.024,2.4874623871614845,0.003563982217464832,0.24433398718122623
499.0,0.024,2.4849699398797593,0.003556843546813065,0.2442115446843458
499.5,0.023,2.4824824824824825,0.0032600784969153336,0.2389499886944904
500.0,0.023,2.48,0.0032535616,0.23883048381645086
500.5,0.022,2.4775224775224776,0.0029708489312884915,0.2334641182398154
501.0,0.022,2.475049900199601,0.002964922052103378,0.23334759009767214
501.5,0.021,2.472582253240279,0.0026961253825761003,0.22786888185543427
502.0,0.02,2.4701195219123506,0.002440596181013,0.22226648518894387
502.5,0.02,2.4676616915422884,0.0024357416895621395,0.22215587732681252
503.0,0.019,2.4652087475149105,0.002193888754945476,0.21642311845730183
503.5,0.019,2.4627606752730884,0.002189533641865433,0.21631563242213606
504.0,0.019,2.4603174603174605,0.002185191484001008,0.21620830637612365
504.5,0.018,2.4578790882061448,0.0019573389543661064,0.21033740415748836
505.0,0.018,2.4554455445544554,0.0019534649544162334,0.21023325094280446
505.5,0.017,2.453016815034619,0.0017389972420095079,0.20420892697330478
506.0,0.017,2.450592885375494,0.001735562186567514,0.20410800829801706
506.5,0.016,2.4481737413622904,0.0015343499949813334,0.19791609298335658
507.0,0.016,2.445759368836292,0.0015313251559041271,0.19781847714857342
507.5,0.016,2.4433497536945814,0.0015283092528331193,0.19772100560920003
508.0,0.015,2.440944881889764,0.0013405976811953625,0.19134830343733508
508.5,0.015,2.438544739429695,0.001337962600395054,0.1912542054215944
509.0,0.014,2.43614931237721,0.0011632254005504072,0.1846783430001497
509.5,0.014,2.433758586849853,0.0011609434483768172,0.18458770331714391
510.0,0.014,2.4313725490196076,0.0011586682045367164,0.18449719696048097
510.5,0.013,2.4289911851126345,0.0009970996919729746,0.1776988615789765
511.0,0.013,2.426614481409002,0.0009951493751938756,0.17761190348148692
511.5,0.013,2.4242424242424243,0.000993204775022957,0.17752507291971892
512.0,0.012,2.421875,0.0008446289062500001,0.1704772712123232
512.5,0.012,2.419512195121951,0.0008429816537775133,0.17039409127508914
513.0,0.012,2.4171539961013644,0.0008413392154851064,0.17031103297560135
513.5,0.012,2.4148003894839336,0.0008397015726314532,0.170228096017688
514.0,0.011,2.412451361867704,0.0007042105103786582,0.16290170343045754
514.5,0.011,2.4101068999028183,0.0007028424475440599,0.1628225288433115
515.0,0.011,2.407766990291262,0.0007014783674238852,0.16274346958696648
515.5,0.01,2.405431619786615,0.0005786101277469258,0.15509453954883826
516.0,0.01,2.4031007751937983,0.0005774893335737035,0.1550193786335695
516.5,0.01,2.4007744433688285,0.0005763717927932908,0.15494432688449192
517.0,0.009,2.3984526112185685,0.0004659585691891547,0.14692199801584213
517.5,0.009,2.396135265700483,0.0004650586011342155,0.14685100405276208
518.0,0.009,2.393822393822394,0.0004641612379064116,0.14678011290498977
518.5,0.009,2.391513982642237,0.00046326646946304005,0.14670932432459818
519.0,0.009,2.3892100192678227,0.0004623742858097497,0.1466386380644965
519.5,0.008,2.386910490856593,0.0003646298682471208,0.13818568640366752
520.0,0.008,2.3846153846153846,0.00036392899408284026,0.13811923499977502
520.5,0.008,2.382324687800192,0.00036323013875854613,0.13805287937019473
521.0,0.008,2.380038387715931,0.00036253329452809257,0.13798661928508665
521.5,0.007,2.377756471716203,0.00027703256610062604,0.12901277185617485
522.0,0.007,2.375478927203065,0.00027650210654570545,0.1289509693271883
522.5,0.007,2.373205741626794,0.0002759731691124288,0.12888925553120228
523.0,0.007,2.3709369024856595,0.0002754457479828464,0.12882763025608915
523.5,0.006,2.3686723973256925,0.00020198192133069517,0.11921423733746803
524.0,0.006,2.366412213740458,0.0002015966435522406,0.11915734674136862
524.5,0.006,2.364156339370829,0.00020121246709154208,0.11910053751442508
525.0,0.006,2.361904761904762,0.00020082938775510209,0.1190438094628552
525.5,0.006,2.3596574690770695,0.00020044740136936328,0.11898716239352218
526.0,0.006,2.3574144486692017,0.00020006650378059538,0.11893059611393197
526.5,0.005,2.355175688509022,0.00013867131309359864,0.10851671964515473
527.0,0.005,2.3529411764705883,0.00013840830449826988,0.10846522890932808
527.5,0.005,2.3507109004739335,0.0001381460434401743,0.10841381140043767
528.0,0.005,2.3484848484848486,0.00013788452708907257,0.10836246694508317
528.5,0.005,2.346263008514664,0.00013762375262810707,0.10831119537043861
529.0,0.005,2.344045368620038,0.00013736371725372627,0.10825999650424985
529.5,0.004,2.3418319169027386,8.774682763238969e-05,0.09678495579174975
530.0,0.004,2.339622641509434,8.758134567461731e-05,0.09673929173835075
530.5,0.004,2.33741753063148,8.741633140005383e-05,0.09669369225821257
531.0,0.004,2.335216572504708,8.725178304801018e-05,0.09664815719929083
531.5,0.004,2.3330197554092194,8.70876988660751e-05,0.09660268641004181
532.0,0.004,2.330827067669173,8.692407711006844e-05,0.09655727973942044
532.5,0.004,2.328638497652582,8.676091604399478e-05,0.09651193703687813
533.0,0.004,2.326454033771107,8.659821393999768e-05,0.09646665815236075
533.5,0.003,2.32427366447985,4.862023260655132e-05,0.083503419052393
534.0,0.003,2.3220973782771535,4.852922610781467e-05,0.08346431653605905
534.5,0.003,2.3199251637043967,4.8438474886699855e-05,0.0834252689004548
535.0,0.003,2.317757009345794,4.834797798934404e-05,0.08338627601732423
535.5,0.003,2.315592903828198,4.825773446633557e-05,0.08334733775883063
536.0,0.003,2.3134328358208953,4.8167743372688785e-05,0.08330845399755468
536.5,0.003,2.3112767940354146,4.807800376781963e-05,0.08326962460649288
537.0,0.003,2.3091247672253257,4.798851471552073e-05,0.08323084945905561
537.5,0.003,2.3069767441860467,4.789927528393727e-05,0.08319212842906556
538.0,0.002,2.3048327137546467,2.1249015353574436e-05,0.0678945169178579
538.5,0.002,2.3026926648096566,2.1209574034272793e-05,0.0678629893949516
539.0,0.002,2.300556586270872,2.1170242426537157e-05,0.0678315057516914
539.5,0.002,2.298424467099166,2.1131020123840343e-05,0.06780006588638636
540.0,0.002,2.2962962962962963,2.109190672153635e-05,0.06776866969767514
540.5,0.002,2.294172062904718,2.1052901816849957e-05,0.06773731708452466
541.0,0.002,2.292051756007394,2.1014005008866317e-05,0.06770600794622873
541.5,0.002,2.2899353647276084,2.0975215898520658e-05,0.0676747421824067
542.0,0.002,2.2878228782287824,2.0936534088588118e-05,0.06764351969300211
542.5,0.002,2.2857142857142856,2.0897959183673464e-05,0.06761234037828132
543.0,0.002,2.283609576427256,2.0859490790201087e-05,0.06758120413883222
543.5,0.002,2.281508739650414,2.0821128516404884e-05,0.0675501108755628
544.0,0.001,2.2794117647058822,5.195717993079584e-06,0.04774318553161155
544.5,0.001,2.277318640955005,5.18618019244115e-06,0.047721259842495825
545.0,0.001,2.2752293577981653,5.176668630586652e-06,0.04769936433327142
545.5,0.001,2.2731439046746105,5.167183211359335e-06,0.04767749893476597
546.0,0.001,2.271062271062271,5.157723839042521e-06,0.04765566357802891
546.5,0.001,2.268984446477585,5.148290418357192e-06,0.047633858194330476
547.0,0.001,2.26691042047532,5.1388828544595915e-06,0.04761208271516086
547.5,0.001,2.2648401826484017,5.129501052938846e-06,0.047590337072229295
548.0,0.001,2.2627737226277373,5.120144919814588e-06,0.047568621197463114
548.5,0.001,2.260711030082042,5.110814361534607e-06,0.047546935023006914
549.0,0.001,2.2586520947176685,5.101509284972512e-06,0.047525278481221636
549.5,0.001,2.256596906278435,5.092229597425404e-06,0.04750365150468367
550.0,0.001,2.2545454545454544,5.082975206611569e-06,0.04748205402618398
550.5,0.001,2.2524977293369663,5.073746020668189e-06,0.047460485978727256
551.0,0.001,2.250453720508167,5.064541948149053e-06,0.04743894729553099
551.5,0.001,2.2484134179510424,5.0553628980222895e-06,0.047417437910024646
552.0,0.001,2.246376811594203,5.0462087796681386e-06,0.047395957755848796
552.5,0.001,2.244343891402715,5.037079502876681e-06,0.0473745067668542
553.0,0.001,2.2423146473779387,5.027974977845649e-06,0.047353084877101076
553.5,0.001,2.2402890695573623,5.0188951151781925e-06,0.0473316920208581
554.0,0.001,2.2382671480144403,5.009839825880697e-06,0.047310328132601664
554.5,0.0,2.236248872858431,0.0,0.0
555.0,0.0,2.234234234234234,0.0,0.0
555.5,0.0,2.232223222322232,0.0,0.0
556.0,0.0,2.2302158273381294,0.0,0.0
556.5,0.0,2.2282120395327945,0.0,0.0
557.0,0.0,2.2262118491921004,0.0,0.0
557.5,0.0,2.2242152466367715,0.0,0.0
558.0,0.0,2.2222222222222223,0.0,0.0
558.5,0.0,2.2202327663384063,0.0,0.0
559.0,0.0,2.21824686940966,0.0,0.0
559.5,0.0,2.2162645218945487,0.0,0.0
560.0,0.0,2.2142857142857144,0.0,0.0
560.5,0.0,2.2123104371097235,0.0,0.0
561.0,0.0,2.2103386809269163,0.0,0.0
561.5,0.0,2.2083704363312555,0.0,0.0
562.0,0.0,2.206405693950178,0.0,0.0
562.5,0.0,2.2044444444444444,0.0,0.0
563.0,0.0,2.202486678507993,0.0,0.0
563.5,0.0,2.2005323868677906,0.0,0.0
564.0,0.0,2.198581560283688,0.0,0.0
564.5,0.0,2.1966341895482726,0.0,0.0
565.0,0.0,2.1946902654867255,0.0,0.0
565.5,0.0,2.1927497789566757,0.0,0.0
566.0,0.0,2.1908127208480566,0.0,0.0
566.5,0.0,2.1888790820829658,0.0,0.0
567.0,0.0,2.18694885361552,0.0,0.0
567.5,0.0,2.185022026431718,0.0,0.0
568.0,0.0,2.183098591549296,0.0,0.0
568.5,0.0,2.1811785400175903,0.0,0.0
569.0,0.0,2.1792618629173988,0.0,0.0
569.5,0.0,2.177348551360843,0.0,0.0
570.0,0.0,2.175438596491228,0.0,0.0
570.5,0.0,2.17353198948291,0.0,0.0
571.0,0.0,2.171628721541156,0.0,0.0
571.5,0.0,2.1697287839020123,0.0,0.0
572.0,0.0,2.167832167832168,0.0,0.0
572.5,0.0,2.165938864628821,0.0,0.0
573.0,0.0,2.1640488656195465,0.0,0.0
573.5,0.0,2.1621621621621623,0.0,0.0
574.0,0.0,2.1602787456445993,0.0,0.0
574.5,0.0,2.158398607484769,0.0,0.0
575.0,0.0,2.1565217391304348,0.0,0.0
575.5,0.0,2.154648132059079,0.0,0.0
576.0,0.0,2.1527777777777777,0.0,0.0
576.5,0.0,2.1509106678230703,0.0,0.0
577.0,0.0,2.149046793760832,0.0,0.0
577.5,0.0,2.1471861471861473,0.0,0.0
578.0,0.0,2.1453287197231834,0.0,0.0
578.5,0.0,2.143474503025065,0.0,0.0
579.0,0.0,2.1416234887737478,0.0,0.0
579.5,0.0,2.1397756686798965,0.0,0.0
580.0,0.0,2.1379310344827585,0.0,0.0
580.5,0.0,2.136089577950043,0.0,0.0
581.0,0.0,2.134251290877797,0.0,0.0
581.5,0.0,2.1324161650902838,0.0,0.0
582.0,0.0,2.1305841924398625,0.0,0.0
582.5,0.0,2.128755364806867,0.0,0.0
583.0,0.0,2.1269296740994856,0.0,0.0
583.5,0.0,2.125107112253642,0.0,0.0
584.0,0.0,2.1232876712328768,0.0,0.0
584.5,0.0,2.121471343028229,0.0,0.0
585.0,0.0,2.1196581196581197,0.0,0.0
585.5,0.0,2.1178479931682324,0.0,0.0
586.0,0.0,2.1160409556313993,0.0,0.0
586.5,0.0,2.114236999147485,0.0,0.0
587.0,0.0,2.1124361158432707,0.0,0.0
587.5,0.0,2.1106382978723404,0.0,0.0
588.0,0.0,2.108843537414966,0.0,0.0
588.5,0.0,2.1070518266779947,0.0,0.0
589.0,0.0,2.1052631578947367,0.0,0.0
589.5,0.0,2.1034775233248517,0.0,0.0
590.0,0.0,2.1016949152542375,0.0,0.0
590.5,0.0,2.0999153259949197,0.0,0.0
591.0,0.0,2.0981387478849407,0.0,0.0
591.5,0.0,2.09636517328825,0.0,0.0
592.0,0.0,2.0945945945945947,0.0,0.0
592.5,0.0,2.0928270042194095,0.0,0.0
593.0,0.0,2.09106239460371,0.0,0.0
593.5,0.0,2.0893007582139846,0.0,0.0
594.0,0.0,2.0875420875420874,0.0,0.0
594.5,0.0,2.08578637510513,0.0,0.0
595.0,0.0,2.0840336134453783,0.0,0.0
595.5,0.0,2.082283795130143,0.0,0.0
596.0,0.001,2.0805369127516777,4.328633845322282e-06,0.045612902919587105
596.5,0.001,2.0787929589270746,4.321380166084783e-06,0.04559378202043646
597.0,0.001,2.0770519262981573,4.314144704538886e-06,0.045574685147548276
597.5,0.001,2.075313807531381,4.306927399730397e-06,0.0455556122506479
598.0,0.001,2.0735785953177257,4.299728190959832e-06,0.045536563279607804
598.5,0.001,2.071846282372598,4.292547017781155e-06,0.04551753818444708
599.0,0.001,2.0701168614357264,4.285383820000503e-06,0.04549853691533087
599.5,0.001,2.0683903252710594,4.2782385376749196e-06,0.04547955942256982
600.0,0.001,2.066666666666667,4.271111111111111e-06,0.045460605656619524
600.5,0.001,2.0649458784346377,4.2640014808641985e-06,0.04544167556807999
601.0,0.001,2.0632279534109816,4.256909587736468e-06,0.04542276910769511
601.5,0.001,2.061512884455528,4.249835372776151e-06,0.04540388622635212
602.0,0.001,2.0598006644518274,4.242778777276189e-06,0.04538502687508103
602.5,0.001,2.0580912863070537,4.235739742773023e-06,0.045366191005054124
603.0,0.001,2.056384742951907,4.2287182110453814e-06,0.04534737856758544
603.5,0.001,2.054681027340514,4.22171412411307e-06,0.0453285895141302
604.0,0.001,2.052980132450331,4.214727424235778e-06,0.0453098237962843
604.5,0.001,2.051282051282051,4.2077580539119e-06,0.04529108136578383
605.0,0.001,2.049586776859504,4.200805955877331e-06,0.045272362174504484
605.5,0.001,2.047894302229562,4.1938710731043055e-06,0.045253666174461075
606.0,0.001,2.046204620462046,4.186953348800226e-06,0.045234993317807025
606.5,0.001,2.044517724649629,4.180052726406496e-06,0.045216343556833835
607.0,0.001,2.042833607907743,4.173169149597367e-06,0.045197716843970594
607.5,0.001,2.0411522633744856,4.166302562278785e-06,0.045179113131783424
608.0,0.001,2.039473684210526,4.159452908587258e-06,0.045160532372975036
608.5,0.001,2.037797863599014,4.152620132888706e-06,0.045141974520384175
609.0,0.001,2.0361247947454846,4.145804179777342e-06,0.04512343952698514
609.5,0.001,2.0344544708777685,4.13900499407454e-06,0.04510492734588726
610.0,0.001,2.0327868852459017,4.1322225208277345e-06,0.045086437930334455
610.5,0.001,2.031122031122031,4.1254567053092844e-06,0.045067971233704665
611.0,0.001,2.0294599018003274,4.118707493015395e-06,0.045049527209509395
611.5,0.001,2.027800490596893,4.111974829665e-06,0.04503110581139323
612.0,0.001,2.026143790849673,4.1052586611986845e-06,0.04501270699313332
612.5,0.001,2.024489795918367,4.098558933777592e-06,0.04499433070863892
613.0,0.001,2.0228384991843393,4.0918755937823514e-06,0.04497597691195089
613.5,0.001,2.0211898940505297,4.085208587811992e-06,0.0449576455572412
614.0,0.001,2.019543973941368,4.078557862682893e-06,0.044939336598812496
614.5,0.001,2.017900732302685,4.0719233654277125e-06,0.04492104999109755
615.0,0.001,2.016260162601626,4.065305043294335e-06,0.044902785688658846
615.5,0.001,2.014622258326564,4.058702843744824e-06,0.044884543646188095
616.0,0.001,2.012987012987013,4.052116714454378e-06,0.044866323818505714
616.5,0.001,2.0113544201135443,4.045546603310291e-06,0.04484812616056042
617.0,0.001,2.0097244732576987,4.038992458410935e-06,0.04482995062742874
617.5,0.001,2.0080971659919027,4.032454228064712e-06,0.04481179717431452
618.0,0.001,2.0064724919093853,4.025931860789058e-06,0.044793665756548494
618.5,0.001,2.0048504446240907,4.019425305309415e-06,0.04477555632958781
619.0,0.001,2.003231017770598,4.012934510558225e-06,0.044757468849015554
619.5,0.001,2.0016142050040355,4.006459425673937e-06,0.04473940327054034
620.0,0.001,2.0,4e-06,0.044721359549995794
620.5,0.001,1.9983883964544722,3.993556183083878e-06,0.04470333764334015
621.0,0.001,1.996779388083736,3.987127924676059e-06,0.04468533750665576
621.5,0.001,1.995172968624296,3.980715174729086e-06,0.044667359096148676
622.0,0.001,1.9935691318327975,3.974317883396574e-06,0.04464940236814819
622.5,0.002,1.9919678714859437,1.5871744004128963e-05,0.06311842633472327
623.0,0.001,1.9903691813804174,3.961569478188953e-06,0.044613553785597684
623.5,0.002,1.9887730553327987,1.5820873062471023e-05,0.06306778980323947
624.0,0.002,1.9871794871794872,1.579552925706772e-05,0.06304251719561152
624.5,0.002,1.9855884707766214,1.577024630112417e-05,0.06301727494547224
625.0,0.002,1.984,1.5745024e-05,0.06299206299209449
625.5,0.002,1.982414068745004,1.5719862159832486e-05,0.06296688127492109
626.0,0.002,1.9808306709265175,1.5694760587532794e-05,0.06294172973356417
626.5,0.002,1.9792498004788508,1.5669719090782286e-05,0.06291660830780456
627.0,0.002,1.977671451355662,1.564473747802884e-05,0.06289151693759122
627.5,0.002,1.9760956175298805,1.56198155584832e-05,0.06286645556304063
628.0,0.002,1.9745222929936306,1.5594953142115297e-05,0.06284142412443611
628.5,0.002,1.9729514717581544,1.5570150039650668e-05,0.06281642256222737
629.0,0.002,1.971383147853736,1.554540606256682e-05,0.06279145081702979
629.5,0.002,1.9698173153296268,1.5520721023089677e-05,0.0627665088296239
630.0,0.002,1.9682539682539681,1.5496094734189967e-05,0.06274159654095468
630.5,0.002,1.9666931007137192,1.5471527009579776e-05,0.06271671389213117
631.0,0.002,1.9651347068145801,1.5447017663708905e-05,0.0626918608244257
631.5,0.002,1.9635787806809184,1.542256651176145e-05,0.06266703727927336
632.0,0.002,1.9620253164556962,1.53981733696523e-05,0.06264224319827151
632.5,0.002,1.9604743083003953,1.5373838054023655e-05,0.06261747852317906
633.0,0.002,1.9589257503949447,1.534956038224159e-05,0.06259274319591601
633.5,0.002,1.957379636937648,1.5325340172392635e-05,0.06256803715856281
634.0,0.002,1.9558359621451105,1.530117724328036e-05,0.06254336035335982
634.5,0.002,1.954294720252167,1.5277071414421983e-05,0.06251871272270675
635.0,0.002,1.952755905511811,1.5253022506045014e-05,0.062494094209162056
635.5,0.002,1.951219512195122,1.5229030339083879e-05,0.062469504755442426
636.0,0.002,1.949685534591195,1.5205094735176614e-05,0.06244494430442219
636.5,0.002,1.94815396700707,1.5181215516661538e-05,0.06242041279913279
637.0,0.002,1.946624803767661,1.5157392506573939e-05,0.06239591018276216
637.5,0.002,1.9450980392156862,1.513362552864283e-05,0.06237143639865426
638.0,0.002,1.9435736677115987,1.5109914407287665e-05,0.062346991390308464
638.5,0.002,1.942051683633516,1.5086258967615097e-05,0.06232257510137905
639.0,0.002,1.9405320813771518,1.5062659035415764e-05,0.06229818747567463
639.5,0.002,1.9390148553557467,1.503911443716107e-05,0.062273828457157614
640.0,0.002,1.9375,1.5015624999999999e-05,0.06224949798994366
640.5,0.002,1.9359875097580015,1.4992190551755954e-05,0.06222519601830116
641.0,0.002,1.9344773790951637,1.4968810920923574e-05,0.06220092248665069
641.5,0.002,1.9329696024941543,1.4945485936665635e-05,0.06217667733956446
642.0,0.002,1.9314641744548287,1.4922215428809893e-05,0.06215246052176581
642.5,0.002,1.9299610894941635,1.4898999227845993e-05,0.06212827197812866
643.0,0.002,1.9284603421461897,1.4875837164922397e-05,0.062104111653677
643.5,0.002,1.926961926961927,1.485272907184329e-05,0.062079979493584354
644.0,0.002,1.9254658385093169,1.4829674781065545e-05,0.06205587544317326
644.5,0.002,1.9239720713731574,1.4806674125695673e-05,0.06203179944791474
645.0,0.002,1.9224806201550388,1.4783726939486812e-05,0.0620077514534278
645.5,0.002,1.9209914794732765,1.4760833056835712e-05,0.061983731405478915
646.0,0.002,1.9195046439628483,1.4737992312779765e-05,0.06195973924998149
646.5,0.002,1.9180201082753288,1.4715204542994018e-05,0.061935774932995374
647.0,0.002,1.9165378670788253,1.4692469583788215e-05,0.061911838400726324
647.5,0.002,1.915057915057915,1.4669787272103873e-05,0.06188792959952554
648.0,0.002,1.9135802469135803,1.4647157445511356e-05,0.06186404847588913
648.5,0.002,1.9121048573631456,1.4624579942206943e-05,0.061840194976457596
649.0,0.002,1.9106317411402156,1.4602054601009969e-05,0.06181636904801536
649.5,0.002,1.9091608929946113,1.4579581261359929e-05,0.06179257063749025
650.0,0.002,1.9076923076923078,1.4557159763313613e-05,0.06176879969195302
650.5,0.002,1.9062259800153727,1.4534789947542273e-05,0.06174505615861683
651.0,0.002,1.9047619047619047,1.4512471655328798e-05,0.06172133998483676
651.5,0.002,1.903300076745971,1.4490204728564878e-05,0.06169765111810937
652.0,0.002,1.901840490797546,1.4467989009748202e-05,0.061673989506072106
652.5,0.002,1.9003831417624522,1.4445824341979712e-05,0.06165035509650293
653.0,0.002,1.898928024502297,1.4423710568960787e-05,0.06162674783731975
653.5,0.002,1.8974751338944147,1.4401647534990507e-05,0.06160316767657999
654.0,0.002,1.8960244648318043,1.4379635084962922e-05,0.06157961456248008
654.5,0.002,1.894576012223071,1.4357673064364298e-05,0.06155608844335499
655.0,0.002,1.8931297709923665,1.4335761319270439e-05,0.06153258926767777
655.5,0.002,1.8916857360793287,1.4313899696343967e-05,0.06150911698405902
656.0,0.003,1.8902439024390243,3.2157198096371206e-05,0.07530426088420943
656.5,0.003,1.8888042650418888,3.210823396476387e-05,0.07527557900890346
657.0,0.003,1.887366818873668,3.205938158086779e-05,0.07524692988169687
657.5,0.003,1.8859315589353611,3.2010640604895255e-05,0.07521831344031907
658.0,0.003,1.884498480243161,3.196201069834905e-05,0.07518972962266511
658.5,0.003,1.8830675778283978,3.191349152401658e-05,0.07516117836679514
659.0,0.003,1.881638846737481,3.186508274596402e-05,0.0751326596109338
659.5,0.003,1.8802122820318423,3.1816784029530495e-05,0.0751041732934697
660.0,0.003,1.878787878787879,3.176859504132231e-05,0.07507571935295483
660.5,0.003,1.8773656320968963,3.172051544920721e-05,0.07504729772810403
661.0,0.003,1.8759455370650528,3.167254492230861e-05,0.07501890835779443
661.5,0.003,1.874527588813303,3.162468313099994e-05,0.07499055118106486
662.0,0.003,1.8731117824773413,3.157692974689898e-05,0.07496222613711538
662.5,0.003,1.8716981132075472,3.152928444286223e-05,0.07493393316530664
663.0,0.003,1.8702865761689291,3.148174689297926e-05,0.07490567220515938
663.5,0.003,1.8688771665410702,3.143431677256721e-05,0.07487744319635393
664.0,0.003,1.8674698795180722,3.138699375816519e-05,0.07484924607872959
664.5,0.003,1.8660647103085026,3.1339777527528804e-05,0.07482108079228413
665.0,0.003,1.8646616541353382,3.1292667759624625e-05,0.07479294727717323
665.5,0.003,1.8632607062359128,3.1245664134624773e-05,0.07476484547371003
666.0,0.003,1.8618618618618619,3.119876633390147e-05,0.07473677532236446
666.5,0.003,1.8604651162790697,3.1151974040021634e-05,0.07470873676376284
667.0,0.003,1.8590704647676162,3.1105286936741526e-05,0.07468072973868727
667.5,0.003,1.857677902621723,3.105870470900139e-05,0.07465275418807513
668.0,0.003,1.8562874251497006,3.101222704292015e-05,0.07462481005301858
668.5,0.003,1.8548990276738968,3.096585362579011e-05,0.07459689727476398
669.0,0.003,1.8535127055306428,3.091958414607171e-05,0.07456901579471147
669.5,0.003,1.8521284540702017,3.0873418293388277e-05,0.07454116555441433
670.0,0.003,1.8507462686567164,3.082735575852083e-05,0.07451334649557856
670.5,0.003,1.8493661446681582,3.07813962334029e-05,0.07448555856006232
671.0,0.003,1.8479880774962743,3.073553941111538e-05,0.07445780168987547
671.5,0.003,1.8466120625465376,3.06897849858814e-05,0.07443007582717899
672.0,0.003,1.8452380952380953,3.064413265306123e-05,0.0744023809142845
672.5,0.003,1.8438661710037174,3.059858210914719e-05,0.0743747168936538
673.0,0.003,1.8424962852897473,3.055313305175867e-05,0.07434708370789833
673.5,0.003,1.8411284335560505,3.0507785179637004e-05,0.07431948129977867
674.0,0.003,1.8397626112759644,3.04625381926406e-05,0.07429190961220403
674.5,0.003,1.838398813936249,3.041739179173987e-05,0.07426436858823178
675.0,0.003,1.837037037037037,3.037234567901235e-05,0.07423685817106697
675.5,0.003,1.8356772760917839,3.0327399557637765e-05,0.07420937830406175
676.0,0.003,1.834319526627219,3.0282553131893145e-05,0.07418192893071504
676.5,0.003,1.8329637841832964,3.023780610714795e-05,0.07415450999467187
677.0,0.003,1.8316100443131462,3.0193158189859253e-05,0.07412712143972298
677.5,0.003,1.830258302583026,3.0148609087566892e-05,0.07409976320980437
678.0,0.003,1.8289085545722714,3.010415850888872e-05,0.07407243524899675
678.5,0.003,1.8275607958732498,3.00598061635158e-05,0.07404513750152504
679.0,0.003,1.8262150220913107,3.00155517622077e-05,0.07401786991175802
679.5,0.003,1.8248712288447388,2.997139501678776e-05,0.0739906324242077
680.0,0.003,1.8235294117647058,2.992733564013841e-05,0.07396342498352897
680.5,0.003,1.8221895664952241,2.9883373346196476e-05,0.07393624753451904
681.0,0.003,1.8208516886930983,2.983950784994857e-05,0.073909100022117
681.5,0.003,1.8195157740278798,2.9795738867426472e-05,0.07388198239140338
682.0,0.003,1.8181818181818181,2.9752066115702474e-05,0.07385489458759964
682.5,0.003,1.8168498168498168,2.970848931288492e-05,0.07382783655606773
683.0,0.003,1.8155197657393851,2.966500817811353e-05,0.07380080824230963
683.5,0.003,1.8141916605705926,2.9621622431554963e-05,0.07377380959196683
684.0,0.003,1.8128654970760234,2.9578331794398275e-05,0.07374684055082001
684.5,0.003,1.8115412710007304,2.9535135988850474e-05,0.07371990106478842
685.0,0.003,1.8102189781021898,2.9492034738132026e-05,0.0736929910799295
685.5,0.003,1.8088986141502552,2.944902776647243e-05,0.07366611054243848
686.0,0.003,1.8075801749271136,2.940611479910582e-05,0.07363925939864782
686.5,0.003,1.8062636562272396,2.936329556226656e-05,0.07361243759502682
687.0,0.003,1.8049490538573507,2.932056978318491e-05,0.07358564507818119
687.5,0.003,1.8036363636363637,2.9277937190082648e-05,0.07355888179485257
688.0,0.003,1.802325581395349,2.9235397512168744e-05,0.07353214769191804
688.5,0.003,1.8010167029774873,2.9192950479635083e-05,0.0735054427163898
689.0,0.003,1.7997097242380262,2.9150595823652217e-05,0.07347876681541464
689.5,0.003,1.798404641044235,2.9108333276364995e-05,0.07345211993627349
690.0,0.003,1.7971014492753623,2.906616257088847e-05,0.07342550202638104
690.5,0.003,1.7958001448225924,2.9024083441303595e-05,0.07339891303328529
691.0,0.003,1.7945007235890014,2.8982095622653043e-05,0.07337235290466705
691.5,0.003,1.7932031814895155,2.894019885093708e-05,0.07334582158833962
692.0,0.003,1.7919075144508672,2.8898392863109367e-05,0.07331931903224825
692.5,0.003,1.7906137184115523,2.8856677397072818e-05,0.0732928451844698
693.0,0.003,1.7893217893217894,2.8815052191675567e-05,0.07326639999321222
693.5,0.003,1.788031723143475,2.8773516986706826e-05,0.07323998340681424
694.0,0.003,1.7867435158501441,2.873207152289281e-05,0.07321359537374485
694.5,0.003,1.7854571634269258,2.8690715541892717e-05,0.0731872358426029
695.0,0.003,1.7841726618705036,2.8649448786294707e-05,0.0731609047621167
695.5,0.003,1.7828900071890725,2.8608270999611858e-05,0.07313460208114363
696.0,0.003,1.7816091954022988,2.8567181926278237e-05,0.07310832774866961
696.5,0.003,1.7803302225412778,2.852618131164488e-05,0.07308208171380885
697.0,0.003,1.7790530846484935,2.8485268901975884e-05,0.07305586392580325
697.5,0.003,1.7777777777777777,2.8444444444444444e-05,0.07302967433402215
698.0,0.003,1.7765042979942693,2.8403707687129003e-05,0.07300351288796182
698.5,0.003,1.7752326413743738,2.836305837900933e-05,0.07297737953724512
699.0,0.003,1.7739628040057225,2.8322496269962605e-05,0.07295127423162098
699.5,0.003,1.7726947819871337,2.82820211107597e-05,0.07292519692096416
700.0,0.003,1.7714285714285714,2.824163265306122e-05,0.07289914755527471
700.5,0.003,1.7701641684511062,2.8201330649413773e-05,0.07287312608467761
701.0,0.004,1.768901569186876,5.006420418354868e-05,0.08411662307027966
701.5,0.004,1.7676407697790448,4.999286225576086e-05,0.08408664031293069
702.0,0.004,1.7663817663817665,4.992167271369551e-05,0.08405668959414869
702.5,0.003,1.7651245551601424,2.804098225706362e-05,0.07276931816006267
703.0,0.003,1.763869132290185,2.800110884261517e-05,0.0727434354211468
703.5,0.003,1.7626154939587775,2.796132041589191e-05,0.07271758028067445
704.0,0.003,1.7613636363636365,2.792161673553719e-05,0.07269175268963399
704.5,0.003,1.7601135557132719,2.788199756105056e-05,0.07266595259913557
705.0,0.004,1.7588652482269505,4.949771138272724e-05,0.08387765490825196
705.5,0.003,1.7576187101346563,2.7803011771938718e-05,0.07261443472481191
706.0,0.004,1.7563739376770537,4.9357590543219186e-05,0.08381823041980913
706.5,0.004,1.7551309271054494,4.928775314051255e-05,0.08378856549924815
707.0,0.004,1.7538896746817538,4.9218063855284296e-05,0.0837589320534056
707.5,0.004,1.7526501766784452,4.9148522268975765e-05,0.08372933002666258
708.0,0.004,1.7514124293785311,4.9079127964505734e-05,0.08369975936353774
708.5,0.004,1.7501764290755117,4.9009880526264164e-05,0.08367022000868676
709.0,0.004,1.7489421720733427,4.8940779540105944e-05,0.08364071190690195
709.5,0.004,1.7477096546863988,4.8871824593344825e-05,0.08361123500311185
710.0,0.004,1.7464788732394365,4.880301527474707e-05,0.0835817892423807
710.5,0.004,1.745249824067558,4.873435117452548e-05,0.08355237456990813
711.0,0.004,1.7440225035161745,4.86658318843332e-05,0.08352299093102868
711.5,0.004,1.7427969079409698,4.8597456997257686e-05,0.0834936382712113
712.0,0.004,1.7415730337078652,4.852922610781467e-05,0.08346431653605905
712.5,0.004,1.7403508771929825,4.846113881194215e-05,0.08343502567130863
713.0,0.004,1.7391304347826086,4.839319470699433e-05,0.0834057656228299
713.5,0.004,1.7379117028731605,4.832539339173583e-05,0.08337653633662556
714.0,0.004,1.7366946778711485,4.825773446633556e-05,0.08334733775883063
714.5,0.004,1.735479356193142,4.8190217532361005e-05,0.08331816983571212
715.0,0.004,1.7342657342657342,4.812284219277226e-05,0.08328903251366855
715.5,0.004,1.7330538085255067,4.8055608051916225e-05,0.08325992573922959
716.0,0.004,1.7318435754189945,4.7988514715520736e-05,0.08323084945905561
716.5,0.004,1.7306350314026517,4.7921561790688924e-05,0.08320180361993727
717.0,0.004,1.7294281729428174,4.785474888589331e-05,0.08317278816879514
717.5,0.004,1.7282229965156795,4.7788075610970146e-05,0.08314380305267927
718.0,0.004,1.7270194986072422,4.772154157711377e-05,0.08311484821876876
718.5,0.004,1.7258176757132915,4.765514639687084e-05,0.08308592361437143
719.0,0.004,1.7246175243393602,4.758888968413478e-05,0.08305702918692337
719.5,0.004,1.7234190410006949,4.752277105414008e-05,0.0830281648839885
720.0,0.004,1.7222222222222223,4.74567901234568e-05,0.08299933065325822
720.5,0.004,1.7210270645385148,4.7390946509984924e-05,0.08297052644255103
721.0,0.004,1.7198335644937586,4.7325239832948916e-05,0.08294175219981209
721.5,0.004,1.7186417186417187,4.7259669712892174e-05,0.08291300787311286
722.0,0.004,1.7174515235457064,4.719423577167149e-05,0.08288429341065064
722.5,0.004,1.7162629757785468,4.712893763245172e-05,0.08285560876074828
723.0,0.004,1.7150760719225449,4.706377491970026e-05,0.0828269538718537
723.5,0.004,1.713890808569454,4.699874725918171e-05,0.08279832869253954
724.0,0.004,1.712707182320442,4.693385427795245e-05,0.08276973317150278
724.5,0.004,1.7115251897860593,4.68690956043553e-05,0.08274116725756434
725.0,0.004,1.710344827586207,4.680447086801427e-05,0.0827126308996687
725.5,0.004,1.7091660923501033,4.673997969982915e-05,0.08268412404688347
726.0,0.004,1.7079889807162534,4.667562173197034e-05,0.08265564664839913
726.5,0.004,1.7068134893324156,4.661139659787354e-05,0.08262719865352851
727.0,0.004,1.7056396148555708,4.6547303932234564e-05,0.0825987800117065
727.5,0.004,1.70446735395189,4.648334337100412e-05,0.08257039067248961
728.0,0.004,1.7032967032967032,4.641951455138268e-05,0.0825420305855557
728.5,0.004,1.702127659574468,4.63558171118153e-05,0.08251369970070348
729.0,0.004,1.700960219478738,4.6292250691986514e-05,0.08248539796785218
729.5,0.004,1.6997943797121315,4.6228814932815205e-05,0.08245712533704123
730.0,0.004,1.6986301369863013,4.616550947644961e-05,0.08242888175842983
730.5,0.004,1.6974674880219027,4.6102333966262224e-05,0.08240066718229659
731.0,0.004,1.6963064295485637,4.603928804684474e-05,0.08237248155903922
731.5,0.004,1.695146958304853,4.597637136400312e-05,0.08234432483917402
732.0,0.004,1.6939890710382515,4.591358356475262e-05,0.08231619697333573
732.5,0.004,1.6928327645051195,4.585092429731273e-05,0.08228809791227695
733.0,0.004,1.6916780354706684,4.57883932111024e-05,0.08226002760686793
733.5,0.004,1.6905248807089297,4.5725989956735056e-05,0.08223198600809614
734.0,0.004,1.6893732970027249,4.566371418601371e-05,0.08220397306706592
734.5,0.004,1.688223281143635,4.56015655519261e-05,0.08217598873499814
735.0,0.004,1.6870748299319729,4.553954370863993e-05,0.08214803296322981
735.5,0.004,1.6859279401767504,4.5477648311497936e-05,0.08212010570321376
736.0,0.004,1.684782608695652,4.541587901701323e-05,0.08209220690651829
736.5,0.004,1.6836388323150033,4.535423548286444e-05,0.08206433652482674
737.0,0.004,1.682496607869742,4.529271736789102e-05,0.08203649450993727
737.5,0.004,1.6813559322033897,4.5231324332088483e-05,0.08200868081376239
738.0,0.004,1.6802168021680217,4.5170056036603725e-05,0.08198089538832866
738.5,0.004,1.6790792146242384,4.5108912143730396e-05,0.08195313818577635
739.0,0.004,1.6779431664411366,4.504789231690413e-05,0.08192540915835908
739.5,0.004,1.6768086544962812,4.498699622069807e-05,0.0818977082584435
740.0,0.004,1.6756756756756757,4.4926223520818116e-05,0.0818700354385089
740.5,0.004,1.674544226873734,4.4865573884098424e-05,0.08184239065114689
741.0,0.004,1.6734143049932524,4.4805046978496806e-05,0.08181477384906109
741.5,0.004,1.672285906945381,4.4744642473090175e-05,0.08178718498506672
742.0,0.004,1.6711590296495957,4.468436003807005e-05,0.08175962401209036
742.5,0.004,1.67003367003367,4.462419934473807e-05,0.0817320908831695
743.0,0.004,1.6689098250336474,4.456416006550143e-05,0.08170458555145231
743.5,0.004,1.6677874915938131,4.4504241873868535e-05,0.08167710797019721
744.0,0.004,1.6666666666666667,4.444444444444445e-05,0.08164965809277261
744.5,0.004,1.6655473472128945,4.438476745292657e-05,0.08162223587265653
745.0,0.004,1.6644295302013423,4.432521057610018e-05,0.08159484126343632
745.5,0.004,1.6633132126089873,4.4265773491834084e-05,0.08156747421880825
746.0,0.004,1.6621983914209115,4.420645587907625e-05,0.08154013469257729
746.5,0.004,1.6610850636302745,4.414725741784949e-05,0.08151282263865667
747.0,0.004,1.6599732262382865,4.4088177789247126e-05,0.08148553801106762
747.5,0.004,1.6588628762541806,4.4029216675428686e-05,0.08145828076393904
748.0,0.004,1.6577540106951871,4.397037375961566e-05,0.08143105085150718
748.5,0.004,1.6566466265865063,4.391164872608722e-05,0.08140384822811526
749.0,0.004,1.6555407209612818,4.3853041260176016e-05,0.08137667284821325
749.5,0.004,1.6544362908605736,4.3794551048263885e-05,0.08134952466635742
750.0,0.004,1.6533333333333333,4.373617777777777e-05,0.08132240363721016
750.5,0.004,1.6522318454363758,4.367792113718547e-05,0.08129530971553957
751.0,0.004,1.6511318242343542,4.3619780815991464e-05,0.08126824285621917
751.5,0.004,1.650033266799734,4.356175650473283e-05,0.08124120301422755
752.0,0.004,1.648936170212766,4.350384789497511e-05,0.08121419014464815
752.5,0.004,1.6478405315614617,4.344605467930817e-05,0.08118720420266883
753.0,0.004,1.6467463479415672,4.338837655134222e-05,0.08116024514358165
753.5,0.004,1.645653616456536,4.333081320570362e-05,0.08113331292278249
754.0,0.004,1.6445623342175066,4.3273364338030954e-05,0.0811064074957708
754.5,0.004,1.6434724983432738,4.3216029644970914e-05,0.08107952881814925
755.0,0.004,1.6423841059602649,4.3158808824174373e-05,0.08105267684562342
755.5,0.004,1.641297154202515,4.310170157429239e-05,0.08102585153400155
756.0,0.004,1.6402116402116402,4.3044707594972155e-05,0.08099905283919412
756.5,0.004,1.6391275611368143,4.298782658685314e-05,0.0809722807172137
757.0,0.004,1.6380449141347424,4.293105825156313e-05,0.08094553512417452
757.5,0.004,1.636963696369637,4.287440229171432e-05,0.08091881601629221
758.0,0.004,1.6358839050131926,4.2817858410899403e-05,0.08089212334988352
758.5,0.004,1.6348055372445616,4.276142631368767e-05,0.080865457081366
759.0,0.004,1.6337285902503293,4.270510570562126e-05,0.0808388171672577
759.5,0.004,1.6326530612244898,4.264889629321117e-05,0.08081220356417686
760.0,0.004,1.631578947368421,4.2592797783933514e-05,0.08078561622884166
760.5,0.004,1.6305062458908612,4.253680988622576e-05,0.08075905511806986
761.0,0.004,1.6294349540078843,4.2480932309482816e-05,0.08073252018877855
761.5,0.004,1.628365068942876,4.24251647640534e-05,0.08070601139798388
762.0,0.004,1.627296587926509,4.236950696123615e-05,0.08067952870280067
762.5,0.004,1.6262295081967213,4.2313958613276005e-05,0.08065307206044221
763.0,0.004,1.6251638269986894,4.225851943336043e-05,0.08062664142821999
763.5,0.004,1.6240995415848067,4.2203189135615666e-05,0.08060023676354323
764.0,0.004,1.6230366492146597,4.214796743510321e-05,0.08057385802391889
764.5,0.004,1.6219751471550032,4.209285404781592e-05,0.0805475051669511
765.0,0.004,1.6209150326797386,4.203784869067453e-05,0.080521178150341
765.5,0.004,1.619856303069889,4.198295108152396e-05,0.08049487693188652
766.0,0.004,1.6187989556135771,4.192816093912972e-05,0.08046860146948193
766.5,0.004,1.6177429876060012,4.187347798317425e-05,0.08044235172111769
767.0,0.004,1.6166883963494132,4.18189019342534e-05,0.08041612764488013
767.5,0.004,1.6156351791530945,4.176443251387283e-05,0.08038992919895115
768.0,0.004,1.6145833333333333,4.171006944444444e-05,0.08036375634160796
768.5,0.004,1.6135328562134028,4.165581244928291e-05,0.0803376090312228
769.0,0.004,1.612483745123537,4.160166125260204e-05,0.08031148722626265
769.5,0.004,1.6114359974009096,4.154761557951144e-05,0.08028539088528895
770.0,0.004,1.6103896103896105,4.149367515601282e-05,0.08025931996695737
770.5,0.004,1.6093445814406229,4.143983970899669e-05,0.08023327443001745
771.0,0.004,1.608300907911803,4.138610896623888e-05,0.08020725423331242
771.5,0.004,1.6072585871678549,4.1332482656396936e-05,0.08018125933577883
772.0,0.004,1.6062176165803108,4.1278960509006946e-05,0.08015528969644638
772.5,0.004,1.6051779935275081,4.1225542254479945e-05,0.08012934527443757
773.0,0.004,1.6041397153945667,4.117222762409859e-05,0.0801034260289675
773.5,0.004,1.6031027795733679,4.1119016350013734e-05,0.08007753191934347
774.0,0.004,1.6020671834625324,4.106590816524115e-05,0.08005166290496488
774.5,0.004,1.6010329244673984,4.101290280365809e-05,0.08002581894532286
775.0,0.004,1.6,4.096e-05,0.08
775.5,0.004,1.5989684074790458,4.0907199489857216e-05,0.07997420602867017
776.0,0.004,1.597938144329897,4.08545010096716e-05,0.07994843699109813
776.5,0.004,1.596909207984546,4.080190429673328e-05,0.07992269284713938
777.0,0.004,1.595881595881596,4.0749409089177436e-05,0.07989697355673983
777.5,0.004,1.594855305466238,4.069701512598092e-05,0.07987127907993556
778.0,0.004,1.5938303341902313,4.064472214695911e-05,0.07984560937685256
778.5,0.004,1.5928066795118818,4.059252989276267e-05,0.07981996440770647
779.0,0.004,1.5917843388960204,4.054043810487426e-05,0.07979434413280231
779.5,0.004,1.5907633098139833,4.048844652560543e-05,0.07976874851253424
780.0,0.004,1.5897435897435896,4.043655489809336e-05,0.07974317750738528
780.5,0.004,1.5887251761691223,4.038476296629774e-05,0.0797176310779271
781.0,0.004,1.587708066581306,4.033307047499758e-05,0.0796921091848197
781.5,0.005,1.5866922584772873,6.293980807779388e-05,0.08906997974843398
782.0,0.005,1.5856777493606138,6.285934812043354e-05,0.0890415001378743
782.5,0.004,1.584664536741214,4.017858710408394e-05,0.07961569033152231
783.0,0.004,1.5836526181353767,4.012728983883253e-05,0.07959026619217646
783.5,0.004,1.5826419910657308,4.0076090750152016e-05,0.07956486639379798
784.0,0.005,1.5816326530612246,6.253904623073721e-05,0.0889278542713481
784.5,0.005,1.5806246016571064,6.245935328409216e-05,0.08889951073141815
785.0,0.005,1.5796178343949046,6.237981256846121e-05,0.08887119427561736
785.5,0.004,1.5786123488224062,3.987227116567351e-05,0.0794635098349527
786.0,0.004,1.5776081424936388,3.982155922019567e-05,0.0794382311609124
786.5,0.004,1.5766052129688493,3.977094396096881e-05,0.07941297659624275
787.0,0.004,1.5756035578144854,3.972042514236263e-05,0.07938774610264447
787.5,0.004,1.5746031746031746,3.967000251952633e-05,0.07936253964190346
788.0,0.004,1.5736040609137056,3.961967584838569e-05,0.0793373571758905
788.5,0.004,1.5726062143310082,3.956944488564008e-05,0.07931219866656096
789.0,0.004,1.5716096324461344,3.951930938875958e-05,0.07928706407595465
789.5,0.005,1.5706143128562382,6.167073299372183e-05,0.08861755787811573
790.0,0.005,1.5696202531645569,6.15926934786092e-05,0.08858950990846932
790.5,0.004,1.5686274509803921,3.936947327950788e-05,0.07921180343813394
791.0,0.005,1.5676359039190897,6.143705818140554e-05,0.0885334937726703
791.5,0.005,1.5666456096020214,6.135946165213223e-05,0.08850552552247858
792.0,0.005,1.5656565656565657,6.128201203958779e-05,0.08847758376155414
792.5,0.004,1.5646687697160884,3.917101374279772e-05,0.0791117884949162
793.0,0.004,1.5636822194199242,3.9121633333280324e-05,0.0790868438975769
793.5,0.004,1.5626969124133585,3.9072346241059906e-05,0.07906192288107743
794.0,0.004,1.561712846347607,3.9023152231154314e-05,0.07903702540828841
794.5,0.004,1.5607300188797986,3.897405106932058e-05,0.07901215144216232
795.0,0.005,1.559748427672956,6.082037894070647e-05,0.08831048713694643
795.5,0.005,1.5587680703959774,6.074394743214997e-05,0.08828272963598195
796.0,0.005,1.5577889447236182,6.066765990757809e-05,0.0882549982925505
796.5,0.005,1.556811048336472,6.059151600556263e-05,0.08822729306559485
797.0,0.004,1.5558343789209537,3.8729929834117595e-05,0.07888813292050849
797.5,0.004,1.554858934169279,3.868138088265642e-05,0.0788633992209131
798.0,0.004,1.5538847117794485,3.863292316003039e-05,0.07883868877091878
798.5,0.004,1.5529117094552285,3.858455643781056e-05,0.07881400153412409
799.0,0.005,1.5519399249061328,6.021293826294133e-05,0.08808915724724958
799.5,0.005,1.5509693558474047,6.0137648569442845e-05,0.08806160786197935
800.0,0.005,1.55,6.006250000000001e-05,0.08803408430829505
800.5,0.005,1.5490318550905684,5.9987492202133204e-05,0.08800658654585373
801.0,0.005,1.5480649188514357,5.991262482446256e-05,0.0879791145344006
801.5,0.005,1.5470991890205863,5.9837897516703905e-05,0.08795166823376878
802.0,0.004,1.546134663341646,3.8248518354985356e-05,0.07864183780511862
802.5,0.005,1.5451713395638629,5.968886171523956e-05,0.08789685260473958
803.0,0.005,1.544209215442092,5.961455252640704e-05,0.08786948319644575
803.5,0.005,1.5432482887367767,5.954038201722474e-05,0.08784213933917982
804.0,0.005,1.5422885572139304,5.9466349842825685e-05,0.08781482099321078
804.5,0.005,1.541330018645121,5.9392455659414236e-05,0.08778752811889401
805.0,0.005,1.5403726708074534,5.931869912426218e-05,0.08776026067667111
805.5,0.005,1.5394165114835505,5.9245079895704615e-05,0.08773301862706967
806.0,0.005,1.5384615384615385,5.91715976331361e-05,0.08770580193070292
806.5,0.005,1.537507749535028,5.9098251997006665e-05,0.08767861054826964
807.0,0.005,1.5365551425030979,5.9025042648817886e-05,0.0876514444405538
807.5,0.005,1.5356037151702786,5.895196925111906e-05,0.0876243035684244
808.0,0.005,1.5346534653465347,5.8879031467503194e-05,0.0875971878928352
808.5,0.005,1.533704390847248,5.880622896260321e-05,0.08757009737482448
809.0,0.005,1.5327564894932015,5.8733561402088074e-05,0.0875430319755148
809.5,0.005,1.5318097591105622,5.8661028452658964e-05,0.08751599165611283
810.0,0.005,1.5308641975308641,5.858862978204541e-05,0.087488976377909
810.5,0.005,1.5299198025909932,5.851636505900159e-05,0.0874619861022774
811.0,0.005,1.528976572133169,5.844423395330239e-05,0.08743502079067543
811.5,0.005,1.5280345040049292,5.8372236135739756e-05,0.08740808040464364
812.0,0.005,1.5270935960591132,5.830037127811885e-05,0.08738116490580546
812.5,0.005,1.5261538461538462,5.822863905325444e-05,0.08735427425586702
813.0,0.005,1.5252152521525215,5.8157039134966995e-05,0.08732740841661688
813.5,0.005,1.524277811923786,5.808557119807913e-05,0.0873005673499258
814.0,0.005,1.5233415233415233,5.801423491841182e-05,0.08727375101774655
814.5,0.005,1.5224063842848374,5.79430299727808e-05,0.08724695938211363
815.0,0.005,1.521472392638037,5.787195603899282e-05,0.08722019240514312
815.5,0.005,1.5205395462906193,5.7801012795842054e-05,0.08719345004903233
816.0,0.005,1.5196078431372548,5.7730199923106496e-05,0.08716673227605974
816.5,0.005,1.518677281077771,5.7659517101544274e-05,0.08714003904858464
817.0,0.005,1.517747858017136,5.758896401289011e-05,0.08711337032904697
817.5,0.005,1.5168195718654434,5.751854033985167e-05,0.08708672607996706
818.0,0.005,1.5158924205378974,5.7448245766106145e-05,0.08706010626394553
818.5,0.005,1.5149664019547953,5.7378079976296465e-05,0.08703351084366284
819.0,0.005,1.514041514041514,5.7308042656028e-05,0.0870069397818793
819.5,0.005,1.513117754728493,5.723813349186491e-05,0.08698039304143472
820.0,0.005,1.5121951219512195,5.71683521713266e-05,0.08695387058524824
820.5,0.005,1.5112736136502132,5.709869838288435e-05,0.08692737237631808
821.0,0.005,1.510353227771011,5.702917181595778e-05,0.08690089837772136
821.5,0.005,1.509433962264151,5.695977216091137e-05,0.08687444855261388
822.0,0.005,1.508515815085158,5.689049910905097e-05,0.08684802286422985
822.5,0.005,1.5075987841945289,5.682135235262054e-05,0.08682162127588176
823.0,0.005,1.5066828675577157,5.675233158479853e-05,0.08679524375096011
823.5,0.005,1.5057680631451122,5.668343649969457e-05,0.08676889025293318
824.0,0.005,1.5048543689320388,5.661466679234612e-05,0.08674256074534688
824.5,0.005,1.5039417828987265,5.6546022158715005e-05,0.08671625519182452
825.0,0.005,1.503030303030303,5.6477502295684106e-05,0.08668997355606653
825.5,0.005,1.5021199273167778,5.640910690105405e-05,0.08666371580185037
826.0,0.005,1.5012106537530265,5.634083567353974e-05,0.08663748189303018
826.5,0.005,1.5003024803387779,5.627268831276722e-05,0.08661127179353671
827.0,0.005,1.4993954050785974,5.6204664519270284e-05,0.08658508546737705
827.5,0.005,1.498489425981873,5.613676399448709e-05,0.08655892287863433
828.0,0.005,1.497584541062802,5.6068986440757073e-05,0.0865327839914677
828.5,0.005,1.4966807483403741,5.6001331561317553e-05,0.086506668770112
829.0,0.005,1.4957780458383594,5.5933799060300527e-05,0.08648057717887755
829.5,0.005,1.4948764315852923,5.586638864272943e-05,0.08645450918215002
830.0,0.005,1.4939759036144578,5.579910001451589e-05,0.08642846474439013
830.5,0.005,1.4930764599638773,5.57319328824566e-05,0.08640244383013357
831.0,0.005,1.4921780986762936,5.5664886954229966e-05,0.08637644640399064
831.5,0.005,1.491280817799158,5.559796193839315e-05,0.08635047243064621
832.0,0.005,1.4903846153846154,5.553115754437871e-05,0.0863245218748594
832.5,0.005,1.4894894894894894,5.54644734824915e-05,0.08629859470146341
833.0,0.005,1.4885954381752702,5.539790946390562e-05,0.08627269087536538
833.5,0.005,1.4877024595080983,5.5331465200661124e-05,0.08624681036154608
834.0,0.005,1.486810551558753,5.526514040566108e-05,0.08622095312505984
834.5,0.005,1.4859197124026362,5.519893479266834e-05,0.08619511913103423
835.0,0.005,1.4850299401197604,5.5132848076302476e-05,0.08616930834466992
835.5,0.005,1.4841412327947336,5.506687997203679e-05,0.08614352073124054
836.0,0.005,1.4832535885167464,5.5001030196195144e-05,0.08611775625609235
836.5,0.005,1.4823670053795577,5.493529846594894e-05,0.08609201488464414
837.0,0.005,1.4814814814814814,5.486968449931412e-05,0.08606629658238704
837.5,0.005,1.480597014925373,5.4804188015148134e-05,0.08604060131488428
838.0,0.005,1.4797136038186158,5.473880873314689e-05,0.086014929047771
838.5,0.005,1.4788312462731068,5.467354637384176e-05,0.08598927974675409
839.0,0.005,1.4779499404052443,5.4608400658596635e-05,0.085963653377612
839.5,0.005,1.4770696843359141,5.4543371309604926e-05,0.08593804990619447
840.0,0.005,1.4761904761904763,5.4478458049886624e-05,0.08591246929842246
840.5,0.005,1.4753123140987507,5.441366060328528e-05,0.08588691152028785
841.0,0.005,1.474435196195006,5.434897869446515e-05,0.08586137653785333
841.5,0.005,1.4735591206179441,5.4284412048908215e-05,0.08583586431725215
842.0,0.005,1.4726840855106889,5.4219960392911354e-05,0.08581037482468798
842.5,0.005,1.4718100890207715,5.415562345358328e-05,0.08578490802643468
843.0,0.005,1.4709371293001186,5.409140095884185e-05,0.08575946388883617
843.5,0.005,1.4700652045050386,5.402729263741103e-05,0.08573404237830615
844.0,0.005,1.4691943127962086,5.3963298218818094e-05,0.085708643461328
844.5,0.005,1.4683244523386618,5.3899417433390785e-05,0.08568326710445459
845.0,0.005,1.467455621301775,5.383565001225447e-05,0.08565791327430802
845.5,0.005,1.4665878178592548,5.3771995687329275e-05,0.08563258193757954
846.0,0.005,1.4657210401891252,5.370845419132728e-05,0.08560727306102926
846.5,0.005,1.4648552864737152,5.3645025257749755e-05,0.08558198661148604
847.0,0.005,1.463990554899646,5.358170862088433e-05,0.0855567225558473
847.5,0.005,1.463126843657817,5.3518504015802155e-05,0.08553148086107878
848.0,0.005,1.4622641509433962,5.345541117835529e-05,0.08550626149421445
848.5,0.005,1.4614024749558043,5.3392429845173764e-05,0.08548106442235627
849.0,0.005,1.4605418138987043,5.332955975366293e-05,0.08545588961267399
849.5,0.005,1.4596821659799881,5.326680064200074e-05,0.08543073703240503
850.0,0.005,1.4588235294117646,5.3204152249134945e-05,0.08540560664885428
850.5,0.005,1.4579659024103468,5.314161431478043e-05,0.08538049842939391
851.0,0.005,1.4571092831962398,5.3079186579416486e-05,0.08535541234146314
851.5,0.005,1.456253669994128,5.301686878428416e-05,0.08533034835256821
852.0,0.005,1.4553990610328638,5.2954660671383536e-05,0.08530530643028204
852.5,0.005,1.4545454545454546,5.289256198347107e-05,0.08528028654224418
853.0,0.005,1.4536928487690504,5.2830572464056926e-05,0.08525528865616051
853.5,0.005,1.4528412419449326,5.276869185740236e-05,0.08523031273980322
854.0,0.005,1.4519906323185012,5.270691990851703e-05,0.08520535876101049
854.5,0.005,1.4511410181392628,5.26452563631564e-05,0.08518042668768638
855.0,0.006,1.4502923976608186,7.572052939365958e-05,0.09328319455274306
855.5,0.006,1.4494447691408534,7.563204499643214e-05,0.09325593072210003
856.0,0.006,1.4485981308411215,7.554371560835007e-05,0.09322869078264871
856.5,0.005,1.4477524810274371,5.23996811580275e-05,0.08508091680945373
857.0,0.006,1.4469078179696615,7.536752041326218e-05,0.0931742824379022
857.5,0.005,1.446064139941691,5.2277537420632553e-05,0.085031292473468
858.0,0.005,1.4452214452214451,5.221662564319906e-05,0.08500651284523572
858.5,0.005,1.4443797320908562,5.215582026187135e-05,0.08498175486805554
859.0,0.005,1.4435389988358556,5.209512102900061e-05,0.08495701851041665
859.5,0.005,1.4426992437463642,5.203452769765827e-05,0.08493230374087248
860.0,0.005,1.441860465116279,5.197404002163331e-05,0.08490761052804038
860.5,0.005,1.4410226612434631,5.191365775542981e-05,0.08488293884060162
861.0,0.005,1.4401858304297328,5.1853380654264484e-05,0.08485828864730106
861.5,0.005,1.4393499709808473,5.1793208474064147e-05,0.0848336599169471
862.0,0.005,1.4385150812064966,5.1733140971463345e-05,0.08480905261841146
862.5,0.006,1.4376811594202898,7.440937618147449e-05,0.09287672989786915
863.0,0.005,1.436848203939745,5.161331902912178e-05,0.08475990219259769
863.5,0.005,1.4360162130862768,5.155356410616628e-05,0.08473535900337818
864.0,0.005,1.4351851851851851,5.149391289437586e-05,0.08471083712209393
864.5,0.005,1.434355118565645,5.1434365153886636e-05,0.08468633651793082
865.0,0.006,1.4335260115606936,7.397988572955997e-05,0.09274241785377478
865.5,0.006,1.4326978625072213,7.389443394837941e-05,0.09271562530147402
866.0,0.006,1.4318706697459584,7.380913013563462e-05,0.09268885595623538
866.5,0.006,1.4310444316214657,7.372397394989293e-05,0.09266210978457588
867.0,0.005,1.4302191464821223,5.113817017410127e-05,0.0845641515797954
867.5,0.006,1.4293948126801153,7.355410309860559e-05,0.09260868682840012
868.0,0.006,1.4285714285714286,7.346938775510205e-05,0.09258200997725514
868.5,0.006,1.427748992515832,7.338481868267905e-05,0.09255535616643151
869.0,0.006,1.42692750287687,7.330039554479113e-05,0.09252872536278245
869.5,0.005,1.4261069580218517,5.084452639295849e-05,0.08444249398323843
870.0,0.005,1.4252873563218391,5.078610120227243e-05,0.08441822541139558
870.5,0.006,1.424468696151637,7.304799838737403e-05,0.09244897066441476
871.0,0.006,1.423650975889782,7.296415564146941e-05,0.09242243155932812
871.5,0.007,1.4228341939185312,9.919840002580601e-05,0.09979899477163945
872.0,0.007,1.4220183486238531,9.90846730073226e-05,0.09977037857183349
872.5,0.005,1.4212034383954155,5.049548033267379e-05,0.08429719563530615
873.0,0.005,1.420389461626575,5.04376555674958e-05,0.08427305208744297
873.5,0.004,1.4195764167143674,3.224315524626566e-05,0.07535453315400123
874.0,0.005,1.4187643020594967,5.032230361995926e-05,0.08422482716098315
874.5,0.006,1.4179531160663237,7.23812774170391e-05,0.09223729558263263
875.0,0.007,1.417142857142857,9.84064e-05,0.09959919678390985
875.5,0.006,1.4163335237007424,7.221602341290821e-05,0.09218460360713417
876.0,0.006,1.4155251141552512,7.213360855695252e-05,0.09215829146057075
876.5,0.005,1.414717626925271,5.003564909832676e-05,0.08410462611905695
877.0,0.006,1.4139110604332954,7.196920152536183e-05,0.09210573468899629
877.5,0.006,1.413105413105413,7.188720870772154e-05,0.09207948999985001
878.0,0.007,1.4123006833712983,9.773506779230077e-05,0.09942889310255389
878.5,0.007,1.4114968696642003,9.762384724051998e-05,0.09940059400048575
879.0,0.006,1.410693970420933,7.164206921455114e-05,0.09200089033550489
879.5,0.005,1.4098919840818647,4.969488516945743e-05,0.08396106192997635
880.0,0.006,1.4090909090909092,7.147933884297523e-05,0.0919486022435657
880.5,0.005,1.408290743895514,4.9582070483544505e-05,0.08391337032605453
881.0,0.005,1.4074914869466515,4.95258071456824e-05,0.08388955497994526
881.5,0.005,1.406693136698809,4.9469639520888344e-05,0.08386575989934178
882.0,0.006,1.4058956916099774,7.115553704474989e-05,0.09184429296183767
882.5,0.007,1.405099150141643,9.674087746470961e-05,0.0991750676883636
883.0,0.007,1.404303510758777,9.663134916614189e-05,0.09914698470105603
883.5,0.006,1.4035087719298245,7.09141274238227e-05,0.0917662935482247
884.0,0.006,1.4027149321266967,7.083393050920332e-05,0.09174033787140845
884.5,0.005,1.4019219898247597,4.913463163885534e-05,0.08372341338672115
885.0,0.005,1.4011299435028248,4.9079127964505734e-05,0.08369975936353774
885.5,0.006,1.4003387916431396,7.059415432970045e-05,0.09166260278793548
886.0,0.008,1.399548532731377,0.00012535911011011522,0.10581298720786128
886.5,0.007,1.3987591652566271,9.586983291708142e-05,0.09895106950809775
887.0,0.005,1.3979706877113867,4.885805109250619e-05,0.08360534336127647
887.5,0.004,1.3971830985915492,3.123392977583812e-05,0.07475782497080956
888.0,0.004,1.3963963963963963,3.119876633390147e-05,0.07473677532236446
888.5,0.004,1.3956105796285876,3.116366223953988e-05,0.07471574344483464
889.0,0.004,1.3948256467941507,3.1128617359275535e-05,0.07469472931322935
889.5,0.005,1.3940415964024733,4.858379931250891e-05,0.08348777145194598
890.0,0.005,1.3932584269662922,4.852922610781467e-05,0.08346431653605905
890.5,0.007,1.3924761370016845,9.501049981383756e-05,0.09872858227996485
891.0,0.007,1.3916947250280585,9.490389617587524e-05,0.09870087677015038
891.5,0.008,1.3909141895681436,0.00012381710609548835,0.10548608209875437
892.0,0.007,1.390134529147982,9.46912264473446e-05,0.09864553565182702
892.5,0.008,1.3893557422969187,0.000123539800233819,0.10542696969170341
893.0,0.007,1.3885778275475924,9.447927077468277e-05,0.09859028751775271
893.5,0.005,1.387800783435926,4.814977536263425e-05,0.08330068377378201
894.0,0.005,1.3870246085011186,4.809593161469204e-05,0.08327738614117036
894.5,0.005,1.3862493012856345,4.804217813287274e-05,0.08325410804535817
895.0,0.006,1.3854748603351956,6.910346119034989e-05,0.09117482745808282
895.5,0.006,1.3847012841987716,6.902631527262218e-05,0.09114937029509655
896.0,0.006,1.3839285714285714,6.894929846938776e-05,0.09112393444409339
896.5,0.007,1.3831567205800335,9.374300317059995e-05,0.09839764755348694
897.0,0.004,1.3823857302118172,3.057584491349215e-05,0.07436089644999762
897.5,0.005,1.3816155988857939,4.772154157711377e-05,0.08311484821876876
898.0,0.005,1.3808463251670378,4.766841434318281e-05,0.08309170611941476
898.5,0.006,1.3800779076238174,6.856614112000802e-05,0.09099707383066175
899.0,0.004,1.3793103448275863,3.0439952437574322e-05,0.07427813527082075
899.5,0.002,1.3785436353529739,7.601530218288772e-06,0.05250797340124591
900.0,0.001,1.3777777777777778,1.898271604938272e-06,0.037118429085533484
