Wavelength (nm),Absorbance,"Energy, eV",Direct transition,Indirect transition
190.0,6.383,6.526315789473684,1735.3451137506922,6.454260119038473
190.5,6.703,6.509186351706036,1903.6708029952947,6.605382359522086
191.0,6.587,6.492146596858639,1828.7399932677286,6.53940132072561
191.5,6.847,6.4751958224543085,1965.6512616051648,6.658503269980773
192.0,6.923,6.458333333333333,1999.0772469184028,6.686631563550265
192.5,7.291,6.441558441558442,2205.749041136111,6.8531308609571
193.0,7.31,6.424870466321243,2205.786661655346,6.853160081948202
193.5,6.931,6.40826873385013,1972.755347597968,6.664511279479933
194.0,7.121,6.391752577319588,2071.6762249335748,6.746530226945758
194.5,7.357,6.375321336760925,2199.913835684406,6.848593948727734
195.0,7.64,6.358974358974359,2360.26553477975,6.970119375058371
195.5,7.815,6.342710997442455,2457.0150210948386,7.0404748735445954
196.0,8.003,6.326530612244898,2563.52089333611,7.115562134490564
196.5,8.241,6.310432569974555,2704.4445984266654,7.211398949521536
197.0,8.292,6.2944162436548226,2724.1405119018787,7.224493026668777
197.5,8.392,6.2784810126582276,2776.1320548988942,7.25871976716472
198.0,8.225,6.262626262626263,2653.290506070809,7.177053783419838
198.5,8.1,6.246851385390428,2560.309017886035,7.113332286745957
199.0,8.006,6.231155778894473,2488.676168622005,7.063047017104527
199.5,8.065,6.215538847117794,2512.848546428728,7.080135648559638
200.0,7.956,6.2,2433.1726598400005,7.023332542319209
200.5,7.899,6.184538653366584,2386.4857421931456,6.989397028567103
201.0,7.899,6.169154228855722,2374.6274462909337,6.980698335677552
201.5,7.985,6.153846153846154,2414.588402366864,7.009883133010246
202.0,8.052,6.138613861386139,2443.1389292814424,7.0305134102625235
202.5,8.139,6.1234567901234565,2483.907462145404,7.059661097730882
203.0,8.12,6.108374384236453,2460.1599999999994,7.042726744663603
203.5,8.073,6.093366093366093,2419.8277241734027,7.013682661180535
204.0,8.076,6.078431372549019,2409.770347404845,7.006383643842655
204.5,8.198,6.06356968215159,2470.9990224926923,7.050471207960411
205.0,8.392,6.048780487804878,2576.7162633289704,7.124701106268145
205.5,8.511,6.034063260340632,2637.4297393361385,7.1663039573241045
206.0,8.444,6.019417475728155,2583.4816361956837,7.1293731256716075
206.5,8.44,6.004842615012106,2568.5507533021823,7.1190499134858
207.0,8.355,5.990338164251208,2504.929964293216,7.074551248123011
207.5,8.399,5.975903614457831,2519.198161883582,7.084604043828513
208.0,8.387,5.961538461538462,2499.942308025148,7.0710270171258065
208.5,8.43,5.947242206235012,2513.543472905129,7.0806250994217415
209.0,8.478,5.9330143540669855,2530.0996268034155,7.092256036958895
209.5,8.462,5.918854415274463,2508.5418901555586,7.077100116718182
210.0,8.478,5.904761904761905,2506.060811755102,7.075349562288172
210.5,8.445,5.890736342042755,2474.7907141124233,7.053174349791098
211.0,8.405,5.876777251184834,2439.7981366096897,7.028108763828896
211.5,8.392,5.862884160756501,2420.7702712561963,7.014365536316777
212.0,8.386,5.849056603773585,2405.921009469562,7.003583988162438
212.5,8.458,5.8352941176470585,2435.907895947958,7.025305519837469
213.0,8.537,5.821596244131455,2469.987334400141,7.049749437827577
213.5,8.563,5.807962529274005,2473.4292917615962,7.052204133331175
214.0,8.494,5.794392523364486,2422.3692059044456,7.015523508153753
214.5,8.414,5.7808857808857805,2365.8858817241808,6.974265048044343
215.0,8.396,5.767441860465116,2344.8297216138453,6.958695413686758
215.5,8.451,5.7540603248259865,2364.639961619501,6.97334667180002
216.0,8.577,5.7407407407407405,2424.413469444444,7.017003158994111
216.5,8.61,5.727482678983834,2431.833696056835,7.022366115922098
217.0,8.557,5.714285714285714,2390.930579591837,6.992649201636162
217.5,8.525,5.7011494252873565,2362.1834535605767,6.971534899186457
218.0,8.538,5.6880733944954125,2358.5369475296693,6.968842848149314
218.5,8.508,5.675057208237987,2331.2854338955535,6.948624808383943
219.0,8.447,5.662100456621005,2287.494871216196,6.915761892740208
219.5,8.425,5.649202733485193,2265.2395743068996,6.898879114001981
220.0,8.455,5.636363636363637,2271.0423479338842,6.903293021845049
220.5,8.352,5.62358276643991,2206.008360516452,6.853332274543977
221.0,8.294,5.610859728506787,2165.6430948096886,6.821764477628592
221.5,8.298,5.598194130925508,2157.9569186166555,6.8157035512425175
222.0,8.387,5.585585585585585,2194.5764145442745,6.84443615693114
222.5,8.47,5.573033707865169,2228.1794286579984,6.870487282982044
223.0,8.42,5.560538116591928,2192.0872054535585,6.842494497016716
223.5,8.401,5.5480984340044746,2172.452476467026,6.82712054559399
224.0,8.343,5.535714285714286,2133.0047413584184,6.795915264753842
224.5,8.379,5.523385300668151,2141.879629597075,6.802973278964018
225.0,8.365,5.511111111111111,2125.250977975309,6.789730807951406
225.5,8.337,5.498891352549889,2101.695918788993,6.770838737276825
226.0,8.31,5.486725663716814,2078.87578040567,6.752384043098165
226.5,8.352,5.474613686534217,2090.681753537126,6.761950422025717
227.0,8.352,5.462555066079295,2081.481844988259,6.7544992347245305
227.5,8.313,5.450549450549451,2053.033941493057,6.731301329046085
228.0,8.341,5.43859649122807,2057.8320111111107,6.7352307557598445
228.5,8.28,5.426695842450766,2018.978225224923,6.703211288292525
229.0,8.273,5.414847161572053,2006.773947682157,6.6930583866933056
229.5,8.177,5.403050108932462,1951.9378524005485,6.646859464494547
230.0,8.246,5.391304347826087,1976.397788310019,6.6675854439350015
230.5,8.237,5.379609544468547,1963.5395025319851,6.656714190784175
231.0,8.278,5.367965367965368,1974.5596349093912,6.666034602071709
231.5,8.203,5.356371490280778,1930.5755544579677,6.6285982933628755
232.0,8.193,5.344827586206897,1917.5792000297263,6.617414329917169
232.5,8.165,5.333333333333333,1896.3121777777772,6.598989821682305
233.0,8.219,5.3218884120171674,1913.2401634511596,6.613667731173762
233.5,8.276,5.310492505353319,1931.570502273842,6.62945216245687
234.0,8.221,5.299145299145299,1897.8459259551462,6.600323742383664
234.5,8.168,5.287846481876333,1865.473716202417,6.571995896526859
235.0,8.124,5.276595744680851,1837.585161387053,6.547294390035264
235.5,8.111,5.265392781316348,1823.9391702994485,6.535105266884146
236.0,8.133,5.254237288135593,1826.0846632864113,6.537026224852305
236.5,8.144,5.2431289640591965,1823.2936109954453,6.5345269364582235
237.0,8.175,5.232067510548523,1829.4569780483898,6.540042193956716
237.5,8.17,5.221052631578948,1819.534336,6.531156099803464
238.0,8.158,5.2100840336134455,1806.5785863710187,6.519498872322817
238.5,8.115,5.19916142557652,1780.096932874491,6.495474960967324
239.0,8.125,5.188284518828452,1777.0281507676682,6.492673695441745
239.5,8.124,5.177453027139875,1769.1805830274457,6.485493689186996
240.0,8.144,5.166666666666667,1770.5019804444446,6.486704350695608
240.5,8.114,5.155925155925156,1750.1820107900646,6.468011805429604
241.0,8.1,5.145228215767635,1736.9180282708633,6.455722155399646
241.5,8.059,5.134575569358178,1712.266704141215,6.4326934104974685
242.0,8.036,5.12396694214876,1695.4793103203333,6.4168682663046335
242.5,8.044,5.11340206185567,1691.8583856919968,6.413439497303067
243.0,8.068,5.102880658436214,1694.9722884790597,6.416388482025022
243.5,8.068,5.092402464065708,1688.0185633434385,6.409797428942832
244.0,7.991,5.081967213114754,1649.1721,6.372597586541928
244.5,7.939,5.071574642126789,1621.1277773110685,6.345331440030897
245.0,7.949,5.061224489795919,1618.5875501474388,6.342844272831216
245.5,7.972,5.05091649694501,1621.3432112592864,6.345542239528914
246.0,8.022,5.040650406504065,1635.0779859607378,6.358938398897697
246.5,8.01,5.0304259634888435,1623.5832241235303,6.347732821058684
247.0,8.003,5.020242914979757,1614.191654319855,6.338533272657248
247.5,7.972,5.01010101010101,1595.2455574476076,6.319851679630247
248.0,7.956,5.0,1582.4484,6.307138812488591
248.5,7.956,4.989939637826962,1576.0868048305933,6.30079040744503
249.0,7.981,4.979919678714859,1579.644274666537,6.30434286471027
249.5,7.984,4.969939879759519,1574.5024,6.299206299209449
250.0,8.029,4.96,1585.9382323455998,6.310613282399738
250.5,8.006,4.950099800399202,1570.576451147207,6.295275927391588
251.0,7.981,4.940239043824701,1554.5709540102534,6.2791757268581785
251.5,7.945,4.930417495029821,1534.4586673201352,6.2587672107222465
252.0,7.922,4.920634920634921,1519.5393984378939,6.243498205434983
252.5,7.905,4.910891089108911,1507.038523125184,6.230617470155421
253.0,7.931,4.901185770750988,1510.9783017013235,6.2346855853223335
253.5,7.977,4.891518737672584,1522.5326936171707,6.246570656801555
254.0,7.989,4.881889763779528,1521.1105531899066,6.245111474011865
254.5,7.968,4.87229862475442,1507.1845994480489,6.230768447153467
255.0,7.935,4.862745098039215,1488.8703169550167,6.211753565052398
255.5,7.954,4.853228962818004,1490.159427416408,6.213097711307492
256.0,7.891,4.84375,1460.9236728759765,6.182396885512932
256.5,7.929,4.834307992202729,1469.2830453678052,6.19122185599704
257.0,7.953,4.824902723735408,1472.4450235189026,6.19455013393771
257.5,7.989,4.815533980582524,1480.0409983915542,6.202523758186968
258.0,7.975,4.8062015503875966,1469.1473018448407,6.191078853022394
258.5,7.971,4.796905222437137,1462.0017542300654,6.183537137273975
259.0,7.989,4.787644787644788,1462.947309217215,6.184536701200358
259.5,7.991,4.7784200385356455,1458.044930715285,6.179349037555521
260.0,7.989,4.769230769230769,1451.7155096094675,6.172631903441563
260.5,7.98,4.760076775431862,1442.891575554172,6.163230700529249
261.0,8.018,4.75095785440613,1451.0903683504357,6.171967277669929
261.5,8.044,4.741873804971319,1454.9367298326686,6.176053180404884
262.0,8.063,4.732824427480916,1456.2438601247018,6.177439870915672
262.5,8.075,4.723809523809524,1455.0228607709746,6.176144582566207
263.0,8.049,4.714828897338403,1440.1765267330743,6.160329357646132
263.5,8.081,4.705882352941177,1446.1466795847748,6.1667037624745396
264.0,8.018,4.696969696969697,1418.2984243342519,6.136799086682164
264.5,8.037,4.688090737240076,1419.645644125057,6.13825588055748
265.0,8.024,4.679245283018868,1409.721951692417,6.127500644711789
265.5,8.071,4.670433145009416,1420.917994213384,6.139630763602238
266.0,8.072,4.661654135338346,1415.9320215727287,6.1342377016587095
266.5,8.1,4.652908067542214,1420.4272041508116,6.139100532414495
267.0,8.104,4.644194756554307,1416.5102201124994,6.13486383769975
267.5,8.107,4.635514018691588,1412.2648291714554,6.130261996809981
268.0,8.14,4.626865671641791,1418.477959456449,6.1369932839432195
268.5,8.151,4.618249534450651,1417.021946431135,6.135417830539927
269.0,8.164,4.609665427509293,1416.2659124334932,6.134599298257863
269.5,8.09,4.601113172541744,1385.5521433562465,6.101065936855847
270.0,8.109,4.592592592592593,1386.9169084444443,6.102567765566666
270.5,8.12,4.584103512014788,1385.5458118565944,6.101058966897474
271.0,8.136,4.575645756457565,1385.8833219809098,6.101430477727231
271.5,8.101,4.567219152854512,1368.9291353553856,6.082683812041721
272.0,8.106,4.5588235294117645,1365.5850734429066,6.078965662792624
272.5,8.138,4.5504587155963305,1371.3418446851276,6.0853621936186295
273.0,8.136,4.542124542124542,1365.6517201304187,6.079039831644901
273.5,8.148,4.53382084095064,1364.6797574992731,6.077957898181412
274.0,8.135,4.525547445255475,1355.368410144387,6.067563635196032
274.5,8.173,4.517304189435337,1363.0810200417386,6.076177016863071
275.0,8.193,4.509090909090909,1364.783905618512,6.078073857578716
275.5,8.195,4.500907441016334,1360.498539069371,6.073297002380903
276.0,8.196,4.492753623188406,1355.9045111531195,6.068163535671412
276.5,8.196,4.4846292947558775,1351.0051311975778,6.062674467577751
277.0,8.2,4.4765342960288805,1347.446519568872,6.058678174935257
277.5,8.221,4.468468468468468,1349.4807437266452,6.060963560299573
278.0,8.179,4.460431654676259,1330.9268754412296,6.040022392640372
278.5,8.215,4.452423698384201,1337.8521066627122,6.047864142176658
279.0,8.227,4.444444444444445,1336.9585975308644,6.046854094853327
279.5,8.252,4.43649373881932,1340.2881704858855,6.05061536810406
280.0,8.235,4.428571428571429,1330.0088005102039,6.038980519449099
280.5,8.212,4.420677361853833,1317.8789479494537,6.025164105279098
281.0,8.259,4.412811387900356,1328.2678555945338,6.037003333829545
281.5,8.258,4.404973357015986,1323.2330178206698,6.031274324903321
282.0,8.244,4.397163120567376,1314.077925577184,6.020814958621253
282.5,8.232,4.389380530973451,1305.6211885961309,6.011104767925231
283.0,8.297,4.381625441696113,1321.6384941552526,6.02945655011732
283.5,8.291,4.37389770723104,1315.0766726774477,6.021958642389746
284.0,8.283,4.366197183098592,1307.9225060305496,6.013751846194324
284.5,8.269,4.3585237258347975,1298.9272046182214,6.00338510250075
285.0,8.332,4.350877192982456,1314.1718882413052,6.020922584781324
285.5,8.372,4.343257443082312,1322.1769585837365,6.030070589428047
286.0,8.385,4.335664335664336,1321.6529752066115,6.029473066076791
286.5,8.377,4.328097731239093,1314.5319572794365,6.021334959507724
287.0,8.363,4.320557491289199,1305.5808473381974,6.011058334407641
287.5,8.389,4.3130434782608695,1309.1459335452548,6.015157665359274
288.0,8.389,4.305555555555555,1304.604233815586,6.009933906088781
288.5,8.406,4.298093587521664,1305.3606196348173,6.010804829364127
289.0,8.403,4.290657439446367,1299.9193601417608,6.004531161020635
289.5,8.415,4.2832469775474955,1299.1355730355174,6.003625847441042
290.0,8.396,4.275862068965517,1288.819903467301,5.991672381817491
290.5,8.41,4.268502581755594,1288.6740655466713,5.991502875953957
291.0,8.442,4.261168384879725,1294.0411531087257,5.997731529933183
291.5,8.471,4.253859348198971,1298.481049067196,6.002869525368138
292.0,8.492,4.2465753424657535,1300.461916006756,6.005157600614591
292.5,8.469,4.239316239316239,1289.0088384378698,5.991891957534718
293.0,8.475,4.2320819112627985,1286.434099407098,5.98889757784788
293.5,8.484,4.2248722316865415,1284.7791464188595,5.986970520524435
294.0,8.494,4.217687074829932,1283.4330620759872,5.985401742039163
294.5,8.522,4.2105263157894735,1287.5254781163437,5.990167381898264
295.0,8.534,4.203389830508475,1286.7809280735426,5.989301195762268
295.5,8.547,4.196277495769881,1286.3400981834113,5.988788170936186
296.0,8.578,4.1891891891891895,1291.3145128560993,5.9945696146483165
296.5,8.547,4.18212478920742,1277.6778999331725,5.978680504371832
297.0,8.582,4.175084175084175,1283.8299178360487,5.985864381237883
297.5,8.587,4.168067226890757,1281.0095162138266,5.982574134710821
298.0,8.61,4.1610738255033555,1283.5628683392636,5.9855530769999765
298.5,8.621,4.1541038525963145,1282.5372558111608,5.984357050948149
299.0,8.616,4.147157190635451,1276.7691317278327,5.977617113408574
299.5,8.641,4.140233722871453,1279.904974909212,5.981284109564787
300.0,8.667,4.133333333333334,1283.3303169600003,5.9852819482460475
300.5,8.666,4.126455906821963,1278.7680798846072,5.979955425295337
301.0,8.686,4.119601328903655,1280.4128653061227,5.981877392830544
301.5,8.712,4.112769485903814,1283.8209867676542,5.985853970921278
302.0,8.75,4.105960264900662,1290.760273672207,5.993926285656238
302.5,8.74,4.099173553719008,1283.5579401407006,5.985547331656824
303.0,8.747,4.092409240924092,1281.3753535971418,5.983001222661001
303.5,8.73,4.085667215815486,1272.1972923253968,5.97225876817718
304.0,8.733,4.078947368421052,1268.887512621191,5.96837057901242
304.5,8.721,4.072249589490969,1261.250494057124,5.959369821545794
305.0,8.719,4.065573770491803,1256.5421083966676,5.953800274187742
305.5,8.764,4.058919803600655,1265.393732145794,5.964257972183643
306.0,8.818,4.052287581699346,1276.8524270836003,5.977714604715152
306.5,8.856,4.045676998368679,1283.682522758397,5.985692566241021
307.0,8.839,4.039087947882736,1274.5969859584716,5.9750730850204254
307.5,8.883,4.032520325203252,1283.1353041856032,5.985054556875858
308.0,8.947,4.025974025974026,1297.4684676842635,6.001698893679156
308.5,8.946,4.019448946515397,1292.9770646548757,5.996498167724788
309.0,8.848,4.0129449838187705,1260.7141851300262,5.958736209703236
309.5,8.797,4.006462035541196,1242.1992066875284,5.936737026907617
310.0,8.783,4.0,1234.257424,5.9272253205019965
310.5,8.825,3.993558776167472,1242.080058914897,5.936594663582644
311.0,8.793,3.987138263665595,1229.12694267429,5.921056219325364
311.5,8.833,3.980738362760835,1236.3565363721857,5.929743835804921
312.0,8.828,3.9743589743589745,1231.0022061801446,5.923313348594773
312.5,8.892,3.968,1244.922267303936,5.939987878775511
313.0,8.896,3.961661341853035,1242.0647703008094,5.936576395290858
313.5,8.903,3.955342902711324,1240.0552254186289,5.934173730422705
314.0,8.881,3.949044585987261,1230.0076550123738,5.922116595285242
314.5,8.877,3.942766295707472,1224.9955484937104,5.91607440850732
315.0,8.923,3.9365079365079363,1233.7979625134794,5.926673630077863
315.5,8.943,3.9302694136291603,1235.409977997845,5.9286085522730865
316.0,8.938,3.9240506329113924,1230.1268720397372,5.922260088594728
316.5,8.914,3.9178515007898893,1219.6667968384459,5.9096301303923475
317.0,8.889,3.911671924290221,1209.012130378449,5.8966814171206305
317.5,8.922,3.905511811023622,1214.1723787800859,5.902963355633572
318.0,8.915,3.89937106918239,1208.4587354139467,5.896006536780722
318.5,8.968,3.893249607535322,1219.0336561186293,5.908863044645456
319.0,8.975,3.8871473354231973,1217.1130492035256,5.906534291394844
319.5,8.954,3.8810641627543037,1207.6353727738717,5.895001994342499
320.0,8.899,3.875,1189.1203931406249,5.872275964223752
320.5,8.839,3.8689547581903274,1169.4820770938543,5.847879197422285
321.0,8.848,3.8629283489096573,1168.2170311856448,5.84629712135405
321.5,8.812,3.8569206842923793,1155.1287489813733,5.829852920098794
322.0,8.842,3.8509316770186337,1159.3982701901937,5.835232462224514
322.5,8.814,3.8449612403100777,1148.4974221222285,5.821467888092575
323.0,8.844,3.8390092879256965,1152.751758701799,5.826851477634801
323.5,8.822,3.8330757341576507,1143.48087994668,5.815100525935797
324.0,8.834,3.8271604938271606,1143.0576637098004,5.814562391312792
324.5,8.846,3.8212634822804312,1142.6358296547253,5.814025865461272
325.0,8.85,3.8153846153846156,1140.1531455621302,5.810865154704061
325.5,8.82,3.8095238095238093,1128.96,5.796550698475776
326.0,8.802,3.803680981595092,1120.9103999999998,5.786190456595773
326.5,8.814,3.797856049004594,1120.5289757917865,5.785698161494988
327.0,8.821,3.7920489296636086,1118.879995526003,5.783568414790534
327.5,8.769,3.786259541984733,1102.3535418551369,5.762092495236789
328.0,8.732,3.7804878048780486,1089.7406136823317,5.745539096742369
328.5,8.712,3.774733637747336,1081.4547587915176,5.734586249421556
329.0,8.712,3.768996960486322,1078.1701600539536,5.730227004208197
329.5,8.686,3.763277693474962,1068.4942330850301,5.717327176707969
330.0,8.676,3.757575757575758,1062.807418710744,5.709704657224162
330.5,8.68,3.7518910741301057,1060.5713549131306,5.706699091721003
331.0,8.653,3.7462235649546827,1050.8017568149248,5.693511439134277
331.5,8.601,3.7405731523378583,1035.0806745480234,5.67209570469839
332.0,8.607,3.7349397590361444,1033.4055957178107,5.669799511977835
332.5,8.561,3.7293233082706765,1019.3165253850414,5.650374929339225
333.0,8.53,3.7237237237237237,1008.9112521530537,5.635899516790852
333.5,8.475,3.7181409295352323,992.9585222381312,5.613487719574266
334.0,8.476,3.712574850299401,990.2214570045538,5.609615355007661
334.5,8.479,3.7070254110612857,987.9623549111741,5.606413154628246
335.0,8.444,3.701492537313433,976.9002157594122,5.59065318053934
335.5,8.41,3.6959761549925485,966.1628022325822,5.575227301508642
336.0,8.377,3.6904761904761907,955.7445857284582,5.560136603323613
336.5,8.359,3.6849925705794946,948.815746623422,5.550031792474165
337.0,8.282,3.679525222551929,928.6541864628551,5.520310488838021
337.5,8.223,3.674074074074074,912.7595729856791,5.496536283070559
338.0,8.147,3.668639053254438,893.316596043556,5.467028659780732
338.5,8.105,3.6632200886262924,881.5197819906662,5.448889686745007
339.0,8.055,3.657817109144543,868.1106085049729,5.428049079932798
339.5,8.008,3.6524300441826214,855.4840997342967,5.408203009670997
340.0,7.977,3.6470588235294117,846.3786902283738,5.393754558310391
340.5,7.884,3.6417033773861966,824.3323983310369,5.3582823206054355
341.0,7.788,3.6363636363636362,802.0224000000001,5.321653878260029
341.5,7.714,3.6310395314787702,784.5510777711801,5.292432233465747
342.0,7.688,3.625730994152047,776.9944336240211,5.279642022243642
342.5,7.637,3.6204379562043796,764.4829428474612,5.2582587109738945
343.0,7.57,3.6151603498542273,748.9397635339018,5.231325247812117
343.5,7.466,3.6098981077147014,726.3833130192871,5.19148334026008
344.0,7.361,3.604651162790698,704.0445170497567,5.151100582332122
344.5,7.269,3.5994194484760524,684.5643135534347,5.115093349194365
345.0,7.147,3.5942028985507246,659.861430778408,5.0683101834775295
345.5,7.075,3.5890014471780027,644.763071200739,5.039065909351095
346.0,6.98,3.5838150289017343,625.7516709545928,5.001502664373389
346.5,6.9,3.578643578643579,609.7265043758551,4.9691690142961225
347.0,6.796,3.5734870317002883,589.781520995939,4.928023728375824
347.5,6.673,3.568345323741007,566.9907870640237,4.879709862822147
348.0,6.58,3.5632183908045976,549.713838023517,4.842104605591897
348.5,6.429,3.558106169296987,523.2685787344409,4.782788366884984
349.0,6.31,3.5530085959885387,502.63327361844307,4.734921777673595
349.5,6.182,3.547925608011445,481.06860086164386,4.683297567817654
350.0,6.081,3.5428571428571427,464.1488603559184,4.641563775896469
350.5,5.954,3.537803138373752,443.6954614386213,4.589562058179115
351.0,5.81,3.532763532763533,421.29024407269424,4.530491819367532
351.5,5.664,3.52773826458037,399.2447380731634,4.470023437363971
352.0,5.524,3.522727272727273,378.6739092975207,4.411297479715628
352.5,5.395,3.517730496453901,360.1704062371108,4.356392547552251
353.0,5.283,3.5127478753541075,344.39368622170144,4.307881965130399
353.5,5.183,3.5077793493635077,330.5422292444318,4.263897321436231
354.0,5.055,3.5028248587570623,313.5300459638035,4.207942449822354
354.5,4.927,3.4978843441466854,297.01338121313506,4.151394484219816
355.0,4.773,3.492957746478873,277.9518269422733,4.083122251897886
355.5,4.646,3.488045007032349,262.61683990655195,4.025600216448759
356.0,4.501,3.4831460674157304,245.78841006186093,3.9595000251847714
356.5,4.377,3.4782608695652173,231.7807667296786,3.901839031288574
357.0,4.261,3.473389355742297,219.0433165391647,3.847091374638498
357.5,4.157,3.4685314685314683,207.89848620392195,3.7971944004337352
358.0,4.039,3.463687150837989,195.71541064261413,3.7402984375895243
358.5,3.929,3.4588563458856347,184.68393014905976,3.6864409100085487
359.0,3.817,3.4540389972144845,173.8196187677004,3.63098703555489
359.5,3.711,3.4492350486787204,163.84284841293635,3.5777243138127246
360.0,3.603,3.4444444444444446,154.01637344444447,3.5228303015236673
360.5,3.496,3.439667128987517,144.60245961053474,3.4677191759051595
361.0,3.404,3.434903047091413,136.71245096032104,3.4194166128594463
361.5,3.303,3.4301521438450897,128.36419879823003,3.365975717547637
362.0,3.208,3.425414364640884,120.75217122798453,3.314925230192675
362.5,3.105,3.420689655172414,112.81076843757434,3.2590246055085785
363.0,3.019,3.4159779614325068,106.35461659115575,3.211360687553601
363.5,2.928,3.4112792297111416,99.76465032874259,3.1604154132952558
364.0,2.846,3.4065934065934065,93.99622118101678,3.1137059647893595
364.5,2.753,3.401920438957476,87.71234615620551,3.060308312645955
365.0,2.676,3.3972602739726026,82.64752634715705,3.015139879533068
365.5,2.602,3.3926128590971274,77.92614498737743,2.971124140686606
366.0,2.536,3.387978142076503,73.82096158141479,2.931196439733443
366.5,2.468,3.383356070941337,69.72455049256544,2.889657900700915
367.0,2.398,3.3787465940054497,65.64620117752749,2.8464423992810866
367.5,2.324,3.3741496598639458,61.489495655328795,2.800272095622818
368.0,2.255,3.369565217391304,57.73522004962192,2.7565140241285535
368.5,2.188,3.364993215739484,54.20795468371722,2.7134120873980776
369.0,2.132,3.3604336043360434,51.329264197530875,2.6766479866512976
369.5,2.078,3.3558863328822732,48.63014576183665,2.6407445540470897
370.0,2.015,3.3513513513513513,45.60264397370344,2.5986482972832188
370.5,1.949,3.3468286099865048,42.54912406439123,2.5540103681981594
371.0,1.884,3.3423180592991915,39.651292460822,2.5093678932591126
371.5,1.832,3.3378196500672948,37.391825887919374,2.4728294722692232
372.0,1.777,3.3333333333333335,35.085877777777775,2.4337899115029082
372.5,1.72,3.3288590604026846,32.78292574208369,2.3928304544811816
373.0,1.662,3.324396782841823,30.52725437831077,2.3505632203969986
373.5,1.61,3.319946452476573,28.570241411876875,2.3119502132371457
374.0,1.563,3.3155080213903743,26.854565003288624,2.276431206391521
374.5,1.515,3.3110814419225636,25.163149156596866,2.2397072095505437
375.0,1.466,3.3066666666666666,23.498967222044442,2.201720539335847
375.5,1.418,3.3022636484687085,21.926835040363404,2.1639338838163766
376.0,1.372,3.297872340425532,20.472736803983707,2.127129721259103
376.5,1.329,3.2934926958831343,19.15858239710481,2.09214048114095
377.0,1.286,3.2891246684350133,17.891329212194556,2.056651240149245
377.5,1.242,3.2847682119205297,16.64380619376343,2.019822298917729
378.0,1.2,3.2804232804232805,15.49609473418997,1.9840634910475865
378.5,1.157,3.276089828269485,14.367404549349184,1.9469041916097962
379.0,1.118,3.271767810026385,13.379767214096256,1.9125471004943901
379.5,1.077,3.2674571805006587,12.38372263900389,1.875913479721069
380.0,1.039,3.263157894736842,11.49495491412742,1.8413096026012514
380.5,1.0,3.2588699080157686,10.620233077370704,1.80523403136983
381.0,0.963,3.254593175853018,9.82304182528365,1.770359632488963
381.5,0.924,3.250327653997379,9.019827421934183,1.7330039677662537
382.0,0.886,3.2460732984293195,8.27149646117157,1.6958835285503475
382.5,0.849,3.241830065359477,7.575230843521721,1.6590098629876182
383.0,0.815,3.2375979112271542,6.962433174948361,1.6243898231798088
383.5,0.784,3.2333767926988264,6.426059746825114,1.5921580968848164
384.0,0.752,3.2291666666666665,5.896802777777777,1.5583110515341068
384.5,0.722,3.224967490247074,5.42157009610035,1.5259182572989902
385.0,0.693,3.220779220779221,4.981823999999999,1.4939879517586478
385.5,0.664,3.216601815823606,4.5617424746947135,1.4614457245162662
386.0,0.636,3.2124352331606216,4.174293602512819,1.4293735719853489
386.5,0.611,3.2082794307891334,3.842614297214027,1.4000924013121994
387.0,0.585,3.204134366925065,3.513445105462412,1.3690940817384183
387.5,0.56,3.2,3.211264000000001,1.338656042454521
388.0,0.533,3.195876288659794,2.9015785843341484,1.3051444601482514
388.5,0.508,3.191763191763192,2.6289888767973717,1.2733482247271175
389.0,0.484,3.1876606683804627,2.380317507814513,1.2421061804435818
389.5,0.462,3.183568677792041,2.1632783177141954,1.2127690337157868
390.0,0.441,3.1794871794871793,1.9660354082840235,1.1841257729455288
390.5,0.419,3.175416133162612,1.770228546415262,1.1534727390775796
391.0,0.398,3.1713554987212276,1.5931475487470645,1.1234765188872657
391.5,0.379,3.1673052362707534,1.4409810099349358,1.0956316372515973
392.0,0.361,3.163265306122449,1.3040241670137445,1.0686153543301744
392.5,0.343,3.159235668789809,1.1742276110187029,1.040969660650542
393.0,0.326,3.1552162849872776,1.0580190069213788,1.0141994423711012
393.5,0.31,3.1512071156289707,0.9542832140452621,0.9883694682885449
394.0,0.294,3.1472081218274113,0.8561415754077661,0.961914334968171
394.5,0.278,3.1432192648922688,0.763552576700224,0.9347806992231124
395.0,0.264,3.1392405063291138,0.6868422983496235,0.9103622870433979
395.5,0.25,3.1352718078381794,0.6143705818140553,0.8853349377267029
396.0,0.238,3.1313131313131315,0.5554013263952658,0.8632800966387012
396.5,0.224,3.1273644388398485,0.4907417685326683,0.8369764837198989
397.0,0.212,3.123425692695214,0.4384641384692498,0.8137359810475295
397.5,0.201,3.119496855345912,0.39315266073335725,0.7918452297794869
398.0,0.19,3.1155778894472363,0.35041640362617105,0.7693892376391646
398.5,0.18,3.1116687578419073,0.3137124316563525,0.748398541160753
399.0,0.17,3.107769423558897,0.27912286983121964,0.7268567960781632
399.5,0.16,3.1038798498122655,0.2466321951250077,0.7047132579779967
400.0,0.151,3.1,0.21911761000000002,0.6841783393238929
400.5,0.143,3.0961298377028714,0.19602452240566953,0.6653920399219625
401.0,0.134,3.092269326683292,0.1716975988955293,0.6437111850632713
401.5,0.127,3.088418430884184,0.1538436988317471,0.6262819977632212
402.0,0.12,3.084577114427861,0.13701047003787034,0.6083989264712285
402.5,0.113,3.080745341614907,0.1211904750588326,0.59002052811956
403.0,0.106,3.076923076923077,0.10637633136094676,0.5710988059467873
403.5,0.099,3.0731102850061958,0.09256071088017027,0.5515776629048836
404.0,0.093,3.0693069306930694,0.0814791589059896,0.5342710403479263
404.5,0.087,3.065512978986403,0.07112869220038473,0.516429694316484
405.0,0.082,3.0617283950617282,0.06303199146471575,0.5010606035152452
405.5,0.077,3.057953144266338,0.05544253809746078,0.48524467241640895
406.0,0.072,3.0541871921182264,0.0483566599529229,0.468936539238
406.5,0.067,3.050430504305043,0.0417707117882987,0.4520827842203659
407.0,0.063,3.0466830466830466,0.03684135974258824,0.4381107530534168
407.5,0.058,3.042944785276074,0.0311490016184275,0.42010807841079695
408.0,0.055,3.0392156862745097,0.02794141676278354,0.40884821479994016
408.5,0.051,3.035495716034272,0.023966223263604345,0.39345937721415136
409.0,0.048,3.031784841075795,0.02117772131921737,0.3814782724764782
409.5,0.045,3.028083028083028,0.01856780582055307,0.36913918278033864
410.0,0.041,3.024390243902439,0.015376000000000003,0.3521363372331802
410.5,0.038,3.020706455542022,0.013176019856358887,0.3388020739467172
411.0,0.036,3.017031630170316,0.011796813895252807,0.329565075040016
411.5,0.033,3.0133657351154315,0.009888526255335296,0.31534278057188697
412.0,0.031,3.0097087378640777,0.00870507116599114,0.30545207623093085
412.5,0.029,3.006060606060606,0.007599612708907254,0.29525541074763995
413.0,0.027,3.002421307506053,0.006571595072961674,0.28471981894954806
413.5,0.025,2.9987908101571947,0.005620466451927028,0.2738060814772562
414.0,0.023,2.995169082125604,0.004745679012345679,0.26246692913372704
414.5,0.021,2.9915560916767188,0.003946688861694805,0.25064452502540546
415.0,0.02,2.9879518072289155,0.003571142400929017,0.24445661403320285
415.5,0.018,2.984356197352587,0.002885667739707281,0.2317723269770284
416.0,0.017,2.980769230769231,0.0025677607248520713,0.2251068122538208
416.5,0.015,2.9771908763505404,0.001994324740700602,0.21132407138151135
417.0,0.014,2.973621103117506,0.001733114803121532,0.20403601506509847
417.5,0.013,2.970059880239521,0.0014907922119832186,0.19649625554476544
418.0,0.012,2.9665071770334928,0.001267223735720336,0.18867455081277368
418.5,0.011,2.962962962962963,0.0010622770919067213,0.180534186769688
419.0,0.01,2.9594272076372317,0.0008758209397303502,0.172029858095542
419.5,0.009,2.9558998808104886,0.0007077248725354123,0.16310456439748827
420.0,0.009,2.9523809523809526,0.0007060408163265307,0.16300744943538187
420.5,0.008,2.948870392390012,0.0005565335418313231,0.15359349966427646
421.0,0.007,2.9453681710213777,0.00042508448948042505,0.14358822095544482
421.5,0.006,2.941874258600237,0.00031156646952292905,0.1328579901684555
422.0,0.006,2.938388625592417,0.0003108285977403922,0.13277925950070102
422.5,0.005,2.93491124260355,0.0002153426000490179,0.12113858267710478
423.0,0.005,2.9314420803782504,0.0002148338167653091,0.12106696660068449
423.5,0.004,2.927981109799292,0.00013716917406946387,0.10822164496623199
424.0,0.004,2.9245283018867925,0.00013684585261658955,0.10815781621106803
424.5,0.003,2.9210836277974086,7.679456604527463e-05,0.0936122368250659
425.0,0.003,2.9176470588235293,7.661397923875433e-05,0.09355715459798138
425.5,0.003,2.9142185663924796,7.643402867435974e-05,0.09350216948914843
426.0,0.002,2.9107981220657275,3.389098282968547e-05,0.07629938560782423
426.5,0.002,2.9073856975381007,3.3811566376996435e-05,0.07625464835061664
427.0,0.002,2.9039812646370025,3.373242874145089e-05,0.07620998969475068
427.5,0.002,2.9005847953216373,3.365356861940426e-05,0.07616540941033058
428.0,0.001,2.897196261682243,8.393746178705564e-06,0.05382560971955862
428.5,0.001,2.893815635939323,8.374168934806909e-06,0.05379419704707305
429.0,0.001,2.8904428904428903,8.35466010291185e-06,0.05376283930786106
429.5,0.001,2.887077997671711,8.335219364640097e-06,0.05373153634200042
430.0,0.001,2.883720930232558,8.315846403461329e-06,0.05370028799021992
430.5,0.001,2.8803716608594656,8.296540904682317e-06,0.05366909409389603
431.0,0.001,2.8770301624129933,8.277302555434134e-06,0.05363795449504943
431.5,0.0,2.87369640787949,0.0,0.0
432.0,0.0,2.8703703703703702,0.0,0.0
432.5,0.0,2.867052023121387,0.0,0.0
433.0,0.0,2.863741339491917,0.0,0.0
433.5,0.0,2.8604382929642447,0.0,0.0
434.0,0.0,2.857142857142857,0.0,0.0
434.5,0.0,2.85385500575374,0.0,0.0
435.0,0.0,2.8505747126436782,0.0,0.0
435.5,0.0,2.847301951779564,0.0,0.0
436.0,0.0,2.8440366972477062,0.0,0.0
436.5,0.0,2.84077892325315,0.0,0.0
437.0,0.0,2.8375286041189933,0.0,0.0
437.5,0.0,2.834285714285714,0.0,0.0
438.0,0.0,2.8310502283105023,0.0,0.0
438.5,0.0,2.827822120866591,0.0,0.0
439.0,0.0,2.8246013667425967,0.0,0.0
439.5,0.0,2.821387940841866,0.0,0.0
440.0,0.0,2.8181818181818183,0.0,0.0
440.5,0.0,2.814982973893303,0.0,0.0
441.0,0.0,2.811791383219955,0.0,0.0
441.5,0.0,2.808607021517554,0.0,0.0
442.0,0.0,2.8054298642533935,0.0,0.0
442.5,0.0,2.8022598870056497,0.0,0.0
443.0,0.0,2.799097065462754,0.0,0.0
443.5,0.0,2.7959413754227733,0.0,0.0
444.0,0.0,2.7927927927927927,0.0,0.0
444.5,0.0,2.7896512935883013,0.0,0.0
445.0,0.0,2.7865168539325844,0.0,0.0
445.5,0.0,2.783389450056117,0.0,0.0
446.0,0.0,2.780269058295964,0.0,0.0
446.5,0.001,2.777155655095185,7.712593532627166e-06,0.05269872536499517
447.0,0.001,2.7740492170022373,7.695349058350726e-06,0.05266924355828776
447.5,0.001,2.7709497206703912,7.67816235448332e-06,0.0526398111762418
448.0,0.001,2.767857142857143,7.661033163265304e-06,0.05261042808091512
448.5,0.001,2.7647714604236344,7.643961228373037e-06,0.052581094134903986
449.0,0.001,2.7616926503340755,7.626946294909251e-06,0.052551809201340303
449.5,0.001,2.7586206896551726,7.609988109393581e-06,0.05252257314388902
450.0,0.001,2.7555555555555555,7.593086419753088e-06,0.05249338582674541
450.5,0.001,2.7524972253052162,7.576240975312915e-06,0.05246424711463242
451.0,0.001,2.7494456762749446,7.5594515267869876e-06,0.05243515687279809
451.5,0.001,2.7464008859357696,7.54271782626878e-06,0.05240611496701286
452.0,0.001,2.743362831858407,7.526039627222178e-06,0.05237712126356704
452.5,0.001,2.7403314917127073,7.509416684472392e-06,0.05234817562926818
453.0,0.001,2.7373068432671084,7.492848754196943e-06,0.05231927793143851
453.5,0.001,2.7342888643880925,7.476335593916724e-06,0.052290428037912375
454.0,0.001,2.7312775330396475,7.459876962487143e-06,0.05226162581703374
454.5,0.001,2.728272827282728,7.443472620089292e-06,0.05223287113765362
455.0,0.001,2.7252747252747254,7.42712232822123e-06,0.05220416386912758
455.5,0.001,2.722283205268935,7.410825849689308e-06,0.052175503881313263
456.0,0.001,2.719298245614035,7.394582948599569e-06,0.05214689104456789
456.5,0.001,2.7163198247535596,7.378393390349209e-06,0.05211832522974582
457.0,0.001,2.713347921225383,7.362256941618107e-06,0.05208980630819607
457.5,0.002,2.710382513661202,2.9384693481441663e-05,0.07362584483265645
458.0,0.002,2.7074235807860263,2.932056978318492e-05,0.0735856450781812
458.5,0.002,2.704471101417666,2.9256655753613142e-05,0.07354551109915093
459.0,0.002,2.701525054466231,2.9192950479635083e-05,0.0735054427163898
459.5,0.002,2.6985854189336234,2.9129453053124637e-05,0.07346543975140452
460.0,0.002,2.6956521739130435,2.906616257088847e-05,0.07342550202638104
460.5,0.002,2.6927252985884906,2.9003078134633905e-05,0.07338562936418125
461.0,0.002,2.6898047722342735,2.894019885093709e-05,0.07334582158833963
461.5,0.002,2.6868905742145177,2.8877523831211285e-05,0.07330607852305998
462.0,0.002,2.683982683982684,2.8815052191675567e-05,0.07326639999321222
462.5,0.002,2.6810810810810812,2.8752783053323594e-05,0.07322678582432908
463.0,0.002,2.678185745140389,2.8690715541892724e-05,0.0731872358426029
463.5,0.002,2.67529665587918,2.8628848787833297e-05,0.07314774987488241
464.0,0.002,2.6724137931034484,2.8567181926278247e-05,0.07310832774866963
464.5,0.002,2.669537136706136,2.850571409701278e-05,0.07306896929211655
465.0,0.002,2.6666666666666665,2.8444444444444444e-05,0.07302967433402215
465.5,0.002,2.6638023630504835,2.838337211757336e-05,0.07299044270382916
466.0,0.002,2.6609442060085837,2.8322496269962605e-05,0.07295127423162098
466.5,0.002,2.658092175777063,2.8261816059708963e-05,0.07291216874811862
467.0,0.002,2.6552462526766596,2.8201330649413773e-05,0.07287312608467761
467.5,0.002,2.6524064171122994,2.8141039206154023e-05,0.07283414607328488
468.0,0.002,2.6495726495726495,2.8080940901453717e-05,0.07279522854655585
468.5,0.002,2.6467449306296693,2.802103491125541e-05,0.0727563733377313
469.0,0.002,2.6439232409381663,2.796132041589191e-05,0.07271758028067445
469.5,0.002,2.6411075612353567,2.79017966000583e-05,0.07267884920986789
470.0,0.003,2.6382978723404253,6.264554096876415e-05,0.08896568786347508
470.5,0.003,2.6354941551540914,6.25124649766624e-05,0.0889184034126922
471.0,0.003,2.632696390658174,6.237981256846119e-05,0.08887119427561735
471.5,0.003,2.6299045599151643,6.224758194836316e-05,0.08882406025253232
472.0,0.003,2.6271186440677967,6.211577133007758e-05,0.08877700114445965
472.5,0.003,2.624338624338624,6.198437893675987e-05,0.08873001675315897
473.0,0.003,2.6215644820295982,6.185340300095205e-05,0.08868310688112362
473.5,0.003,2.6187961985216472,6.172284176452288e-05,0.08863627133157702
474.0,0.003,2.6160337552742616,6.15926934786092e-05,0.08858950990846932
474.5,0.003,2.613277133825079,6.146295640355718e-05,0.08854282241647392
475.0,0.003,2.610526315789474,6.133362880886428e-05,0.08849620866098401
475.5,0.003,2.6077812828601474,6.120470897312144e-05,0.08844966844810918
476.0,0.003,2.6050420168067228,6.107619518395593e-05,0.08840320158467208
476.5,0.003,2.602308499475341,6.0948085737974405e-05,0.08835680787820496
477.0,0.003,2.59958071278826,6.0820378940706454e-05,0.08831048713694642
477.5,0.003,2.5968586387434556,6.069307310654862e-05,0.08826423916983801
478.0,0.003,2.594142259414226,6.056616655870871e-05,0.08821806378652094
478.5,0.003,2.5914315569487982,6.043965762915066e-05,0.08817196079733282
479.0,0.003,2.5887265135699375,6.0313544658539675e-05,0.08812593001330433
479.5,0.003,2.586027111574557,6.0187825996187814e-05,0.08807997124615602
480.0,0.003,2.5833333333333335,6.006250000000001e-05,0.08803408430829505
480.5,0.003,2.5806451612903225,5.9937565036420395e-05,0.08798826901281197
481.0,0.003,2.577962577962578,5.9813019480379154e-05,0.08794252517347756
481.5,0.003,2.5752855659397715,5.968886171523957e-05,0.08789685260473958
482.0,0.003,2.5726141078838176,5.956509013274566e-05,0.08785125112171968
482.5,0.003,2.569948186528497,5.944170313297001e-05,0.0878057205402102
483.0,0.003,2.567287784679089,5.931869912426218e-05,0.08776026067667111
483.5,0.003,2.5646328852119957,5.919607652319726e-05,0.08771487134822685
484.0,0.003,2.56198347107438,5.9073833754524956e-05,0.08766955237266323
484.5,0.003,2.559339525283798,5.895196925111906e-05,0.0876243035684244
485.0,0.003,2.556701030927835,5.883048145392709e-05,0.08757912475460979
485.5,0.003,2.554067971163749,5.8709368811920575e-05,0.08753401575097104
486.0,0.003,2.551440329218107,5.8588629782045425e-05,0.08748897637790902
486.5,0.003,2.5488180883864335,5.846826282917286e-05,0.08744400645647077
487.0,0.003,2.546201232032854,5.834826642605062e-05,0.08739910580834659
487.5,0.003,2.5435897435897434,5.8228639053254425e-05,0.08735427425586702
488.0,0.003,2.540983606557377,5.810937919914002e-05,0.08730951162199987
488.5,0.003,2.5383828045035823,5.799048535979525e-05,0.08726481773034736
489.0,0.003,2.5357873210633946,5.7871956038992806e-05,0.08722019240514312
489.5,0.003,2.533197139938713,5.775378974814309e-05,0.0871756354712493
490.0,0.003,2.5306122448979593,5.7635985006247404e-05,0.08713114675415375
490.5,0.003,2.5280326197757392,5.7518540339851686e-05,0.08708672607996708
491.0,0.004,2.525458248472505,0.00010204702983644501,0.10050787528293502
491.5,0.004,2.522889114954222,0.00010183951178167194,0.10045673924539303
492.0,0.004,2.5203252032520327,0.00010163262608235841,0.1004056811789459
492.5,0.004,2.517766497461929,0.00010142637017186736,0.10035470088564719
493.0,0.004,2.5152129817444218,0.00010122074149657063,0.10030379816825326
493.5,0.004,2.512664640324215,0.00010101573751576987,0.10025297283022015
494.0,0.004,2.5101214574898787,0.0001008113557016178,0.10020222467570027
494.5,0.004,2.507583417593529,0.00010060759353904069,0.10015155350953932
495.0,0.004,2.505050505050505,0.00010040444852566067,0.10010095913727311
495.5,0.004,2.5025227043390514,0.00010020191817171905,0.10005044136512445
496.0,0.004,2.5,0.0001,0.1
496.5,0.004,2.497482376636455,9.979869154575482e-05,0.09994963484948717
497.0,0.004,2.494969818913481,9.959799035662669e-05,0.09989934572185107
497.5,0.004,2.492462311557789,9.939789399257596e-05,0.09984913242603141
498.0,0.004,2.4899598393574296,9.919840002580604e-05,0.09979899477163945
498.5,0.004,2.4874623871614845,9.899950604068977e-05,0.09974893256895503
499.0,0.004,2.4849699398797593,9.880120963369626e-05,0.09969894562892347
499.5,0.004,2.4824824824824825,9.860350841331823e-05,0.09964903376315262
500.0,0.004,2.48,9.84064e-05,0.09959919678390985
500.5,0.004,2.4775224775224776,9.820988202606584e-05,0.09954943450411916
501.0,0.004,2.475049900199601,9.801395213564889e-05,0.0994997467373581
501.5,0.004,2.472582253240279,9.78186079846204e-05,0.09945013329785495
502.0,0.004,2.4701195219123506,9.762384724052001e-05,0.09940059400048575
502.5,0.004,2.4676616915422884,9.742966758248558e-05,0.0993511286607714
503.0,0.004,2.4652087475149105,9.723606670118455e-05,0.09930173709487485
503.5,0.004,2.4627606752730884,9.704304229874494e-05,0.09925241911959805
504.0,0.004,2.4603174603174605,9.685059208868733e-05,0.09920317455237933
504.5,0.004,2.4578790882061448,9.66587137958571e-05,0.09915400321129036
505.0,0.004,2.4554455445544554,9.646740515635722e-05,0.09910490491503346
505.5,0.004,2.453016815034619,9.627666391748141e-05,0.0990558794829387
506.0,0.004,2.450592885375494,9.608648783764783e-05,0.09900692673496121
506.5,0.004,2.4481737413622904,9.589687468633334e-05,0.09895804649167829
507.0,0.004,2.445759368836292,9.570782224400794e-05,0.09890923857428671
507.5,0.004,2.4433497536945814,9.551932830206996e-05,0.09886050280460001
508.0,0.004,2.440944881889764,9.533139066278134e-05,0.09881183900504563
508.5,0.004,2.438544739429695,9.514400713920382e-05,0.0987632469986623
509.0,0.004,2.43614931237721,9.495717555513528e-05,0.0987147266090974
509.5,0.004,2.433758586849853,9.477089374504629e-05,0.09866627766060404
510.0,0.004,2.4313725490196076,9.458515955401768e-05,0.09861789997803863
510.5,0.004,2.4289911851126345,9.43999708376781e-05,0.09856959338685808
511.0,0.004,2.426614481409002,9.421532546214205e-05,0.09852135771311725
511.5,0.004,2.4242424242424243,9.403122130394858e-05,0.09847319278346618
512.0,0.004,2.421875,9.384765625e-05,0.09842509842514764
512.5,0.004,2.419512195121951,9.366462819750148e-05,0.09837707446599439
513.0,0.004,2.4171539961013644,9.348213505390073e-05,0.09832912073442668
513.5,0.004,2.4148003894839336,9.330017473682813e-05,0.09828123705944963
514.0,0.004,2.412451361867704,9.311874517403745e-05,0.0982334232706507
514.5,0.004,2.4101068999028183,9.293784430334678e-05,0.0981856791981971
515.0,0.004,2.407766990291262,9.27574700725799e-05,0.09813800467283329
515.5,0.004,2.405431619786615,9.257762043950815e-05,0.09809039952587847
516.0,0.004,2.4031007751937983,9.239829337179256e-05,0.09804286358922404
516.5,0.004,2.4007744433688285,9.221948684692655e-05,0.09799539669533112
517.0,0.004,2.3984526112185685,9.204119885217871e-05,0.09794799867722809
517.5,0.004,2.396135265700483,9.18634273845364e-05,0.09790066936850805
518.0,0.004,2.393822393822394,9.168617045064922e-05,0.09785340860332652
518.5,0.004,2.391513982642237,9.150942606677336e-05,0.09780621621639879
519.0,0.004,2.3892100192678227,9.1333192258716e-05,0.09775909204299767
519.5,0.004,2.386910490856593,9.11574670617802e-05,0.09771203591895102
520.0,0.004,2.3846153846153846,9.098224852071006e-05,0.09766504768063926
520.5,0.004,2.382324687800192,9.080753468963653e-05,0.09761812716499313
521.0,0.004,2.380038387715931,9.063332363202314e-05,0.0975712742094912
521.5,0.004,2.377756471716203,9.045961342061261e-05,0.09752448865215758
522.0,0.004,2.375478927203065,9.02864021373732e-05,0.0974777703315595
522.5,0.004,2.373205741626794,9.011368787344613e-05,0.097431119086805
523.0,0.004,2.3709369024856595,8.994146872909272e-05,0.09738453475754062
523.5,0.004,2.3686723973256925,8.976974281364229e-05,0.09733801718394909
524.0,0.004,2.366412213740458,8.959850824544025e-05,0.09729156620674699
524.5,0.004,2.364156339370829,8.942776315179647e-05,0.09724518166718245
525.0,0.004,2.361904761904762,8.925750566893426e-05,0.09719886340703295
525.5,0.004,2.3596574690770695,8.908773394193922e-05,0.09715261126860296
526.0,0.004,2.3574144486692017,8.891844612470905e-05,0.09710642509472175
526.5,0.004,2.355175688509022,8.87496403799031e-05,0.09706030472874112
527.0,0.004,2.3529411764705883,8.858131487889275e-05,0.09701425001453319
527.5,0.004,2.3507109004739335,8.841346780171153e-05,0.09696826079648811
528.0,0.004,2.3484848484848486,8.824609733700645e-05,0.09692233691951198
528.5,0.004,2.346263008514664,8.807920168198853e-05,0.0968764782290245
529.0,0.004,2.344045368620038,8.79127790423848e-05,0.09683068457095691
529.5,0.004,2.3418319169027386,8.774682763238969e-05,0.09678495579174975
530.0,0.004,2.339622641509434,8.758134567461731e-05,0.09673929173835075
530.5,0.004,2.33741753063148,8.741633140005383e-05,0.09669369225821257
531.0,0.004,2.335216572504708,8.725178304801018e-05,0.09664815719929083
531.5,0.004,2.3330197554092194,8.70876988660751e-05,0.09660268641004181
532.0,0.004,2.330827067669173,8.692407711006844e-05,0.09655727973942044
532.5,0.004,2.328638497652582,8.676091604399478e-05,0.09651193703687813
533.0,0.004,2.326454033771107,8.659821393999768e-05,0.09646665815236075
533.5,0.004,2.32427366447985,8.643596907831344e-05,0.09642144293630645
534.0,0.004,2.3220973782771535,8.627417974722608e-05,0.09637629123964365
534.5,0.004,2.3199251637043967,8.611284424302196e-05,0.09633120291378898
535.0,0.004,2.317757009345794,8.595196086994496e-05,0.09628617781064516
535.5,0.004,2.315592903828198,8.57915279401521e-05,0.09624121578259905
536.0,0.004,2.3134328358208953,8.563154377366896e-05,0.09619631668251952
536.5,0.004,2.3112767940354146,8.5472006698346e-05,0.0961514803637555
537.0,0.004,2.3091247672253257,8.531291504981465e-05,0.09610670668013395
537.5,0.004,2.3069767441860467,8.515426717144403e-05,0.09606199548595785
538.0,0.004,2.3048327137546467,8.499606141429774e-05,0.0960173466360042
538.5,0.004,2.3026926648096566,8.483829613709117e-05,0.09597275998552207
539.0,0.004,2.300556586270872,8.468096970614863e-05,0.09592823539023058
539.5,0.004,2.298424467099166,8.452408049536137e-05,0.09588377270631701
540.0,0.004,2.2962962962962963,8.43676268861454e-05,0.09583937179043478
540.5,0.004,2.294172062904718,8.421160726739983e-05,0.09579503249970153
541.0,0.004,2.292051756007394,8.405602003546527e-05,0.09575075469169722
541.5,0.004,2.2899353647276084,8.390086359408263e-05,0.09570653822446214
542.0,0.004,2.2878228782287824,8.374613635435247e-05,0.09566238295649512
542.5,0.004,2.2857142857142856,8.359183673469385e-05,0.09561828874675149
543.0,0.004,2.283609576427256,8.343796316080435e-05,0.09557425545464125
543.5,0.004,2.281508739650414,8.328451406561954e-05,0.09553028294002722
544.0,0.004,2.2794117647058822,8.313148788927335e-05,0.0954863710632231
544.5,0.004,2.277318640955005,8.29788830790584e-05,0.09544251968499165
545.0,0.004,2.2752293577981653,8.282669808938644e-05,0.09539872866654284
545.5,0.004,2.2731439046746105,8.267493138174936e-05,0.09535499786953194
546.0,0.004,2.271062271062271,8.252358142468033e-05,0.09531132715605782
546.5,0.004,2.268984446477585,8.237264669371507e-05,0.09526771638866095
547.0,0.004,2.26691042047532,8.222212567135346e-05,0.09522416543032172
547.5,0.004,2.2648401826484017,8.207201684702154e-05,0.09518067414445859
548.0,0.004,2.2627737226277373,8.19223187170334e-05,0.09513724239492623
548.5,0.004,2.260711030082042,8.177302978455371e-05,0.09509387004601383
549.0,0.004,2.2586520947176685,8.162414855956019e-05,0.09505055696244327
549.5,0.005,2.256596906278435,0.0001273057399356351,0.10622139394393285
550.0,0.005,2.2545454545454544,0.00012707438016528925,0.10617310051386497
550.5,0.004,2.2524977293369663,8.117993633069102e-05,0.09492097195745451
551.0,0.004,2.250453720508167,8.103267117038485e-05,0.09487789459106198
551.5,0.004,2.2484134179510424,8.088580636835663e-05,0.09483487582004929
552.0,0.005,2.246376811594203,0.00012615521949170346,0.10598058340078628
552.5,0.005,2.244343891402715,0.00012592698757191704,0.10593261753120978
553.0,0.004,2.2423146473779387,8.044759964553038e-05,0.09470616975420215
553.5,0.004,2.2402890695573623,8.030232184285108e-05,0.0946633840417162
554.0,0.004,2.2382671480144403,8.015743721409116e-05,0.09462065626520333
554.5,0.004,2.236248872858431,8.001294434176965e-05,0.09457798629402998
555.0,0.005,2.234234234234234,0.00012479506533560585,0.10569376126891866
555.5,0.004,2.232223222322232,7.972512822839437e-05,0.09449281924722602
556.0,0.004,2.2302158273381294,7.958180218415195e-05,0.09445032191238163
556.5,0.005,2.2282120395327945,0.0001241232223279724,0.10555122073033534
557.0,0.005,2.2262118491921004,0.00012390047993708278,0.10550383521920188
557.5,0.005,2.2242152466367715,0.00012367833658428687,0.10545651346969451
558.0,0.005,2.2222222222222223,0.0001234567901234568,0.10540925533894598
558.5,0.005,2.2202327663384063,0.0001232358384180673,0.10536206068453688
559.0,0.005,2.21824686940966,0.00012301547934114393,0.10531492936449371
559.5,0.005,2.2162645218945487,0.00012279571077521183,0.10526786123728715
560.0,0.005,2.2142857142857144,0.00012257653061224492,0.10522085616183026
560.5,0.005,2.2123104371097235,0.00012235793675361543,0.10517391399747666
561.0,0.005,2.2103386809269163,0.00012213992711004353,0.10512703460401887
561.5,0.005,2.2083704363312555,0.00012192249960154751,0.10508021784168645
562.0,0.005,2.206405693950178,0.00012170565215739417,0.10503346357114426
562.5,0.005,2.2044444444444444,0.0001214893827160494,0.10498677165349082
563.0,0.005,2.202486678507993,0.00012127368922512927,0.1049401419502564
563.5,0.005,2.2005323868677906,0.00012105856964135141,0.1048935743234015
564.0,0.005,2.198581560283688,0.0001208440219304864,0.10484706863531493
564.5,0.005,2.1966341895482726,0.00012063004406730992,0.10480062474881227
565.0,0.005,2.1946902654867255,0.00012041663403555485,0.10475424252713408
565.5,0.005,2.1927497789566757,0.00012020378982786374,0.10470792183394424
566.0,0.005,2.1908127208480566,0.00011999150944574161,0.10466166253332823
566.5,0.005,2.1888790820829658,0.0001197797908995092,0.10461546448979152
567.0,0.005,2.18694885361552,0.00011956863220825597,0.1045693275682578
567.5,0.005,2.185022026431718,0.00011935803139979431,0.10452325163406749
568.0,0.005,2.183098591549296,0.000119147986510613,0.10447723655297589
568.5,0.005,2.1811785400175903,0.00011893849558583167,0.10443128219115166
569.0,0.005,2.1792618629173988,0.00011872955667915528,0.10438538841517521
569.5,0.005,2.177348551360843,0.00011852116785282906,0.10433955509203696
570.0,0.005,2.175438596491228,0.00011831332717759313,0.1042937820891358
570.5,0.005,2.17353198948291,0.00011810603273263841,0.10424806927427745
571.0,0.005,2.171628721541156,0.00011789928260556187,0.10420241651567289
571.5,0.005,2.1697287839020123,0.00011769307489232264,0.10415682368193675
572.0,0.005,2.167832167832168,0.00011748740769719794,0.1041112906420857
572.5,0.005,2.165938864628821,0.00011728227913273967,0.10406581726553685
573.0,0.005,2.1640488656195465,0.00011707768731973115,0.10402040342210625
573.5,0.005,2.1621621621621623,0.00011687363038714391,0.10397504898200727
574.0,0.005,2.1602787456445993,0.00011667010647209509,0.10392975381584908
574.5,0.005,2.158398607484769,0.00011646711371980478,0.10388451779463505
575.0,0.005,2.1565217391304348,0.00011626465028355388,0.10383934078976124
575.5,0.005,2.154648132059079,0.00011606271432464199,0.10379422267301489
576.0,0.005,2.1527777777777777,0.00011586130401234567,0.10374916331657277
576.5,0.005,2.1509106678230703,0.00011566041752387717,0.10370416259299986
577.0,0.005,2.149046793760832,0.0001154600530443428,0.10365922037524766
577.5,0.005,2.1471861471861473,0.00011526020876670227,0.10361433653665277
578.0,0.005,2.1453287197231834,0.00011506088289172783,0.10356951095093535
578.5,0.005,2.143474503025065,0.00011486207362796374,0.10352474349219767
579.0,0.005,2.1416234887737478,0.00011466377919168596,0.10348003403492259
579.5,0.005,2.1397756686798965,0.00011446599780686245,0.10343538245397212
580.0,0.005,2.1379310344827585,0.00011426872770511295,0.10339078862458585
580.5,0.005,2.136089577950043,0.00011407196712566983,0.10334625242237967
581.0,0.005,2.134251290877797,0.00011387571431533857,0.10330177372334409
581.5,0.005,2.1324161650902838,0.00011367996752845879,0.10325735240384298
582.0,0.005,2.1305841924398625,0.00011348472502686554,0.10321298834061202
582.5,0.005,2.128755364806867,0.00011328998507985042,0.10316868141075727
583.0,0.005,2.1269296740994856,0.0001130957459641236,0.10312443149175382
583.5,0.005,2.125107112253642,0.00011290200596377532,0.10308023846144425
584.0,0.005,2.1232876712328768,0.00011270876337023831,0.10303610219803729
584.5,0.005,2.121471343028229,0.00011251601648224996,0.1029920225801064
585.0,0.005,2.1196581196581197,0.00011232376360581491,0.10294799948658837
585.5,0.005,2.1178479931682324,0.00011213200305416775,0.10290403279678188
586.0,0.005,2.1160409556313993,0.00011194073314773614,0.10286012239034618
586.5,0.005,2.114236999147485,0.00011174995221410408,0.10281626814729966
587.0,0.005,2.1124361158432707,0.00011155965858797512,0.10277246994801845
587.5,0.005,2.1106382978723404,0.00011136985061113627,0.10272872767323511
588.0,0.005,2.108843537414966,0.0001111805266324217,0.10268504120403726
588.5,0.005,2.1070518266779947,0.00011099168500767688,0.10264141042186616
589.0,0.005,2.1052631578947367,0.00011080332409972299,0.10259783520851541
589.5,0.005,2.1034775233248517,0.00011061544227832129,0.10255431544612961
590.0,0.005,2.1016949152542375,0.0001104280379201379,0.10251085101720299
590.5,0.005,2.0999153259949197,0.00011024110940870875,0.10246744180457809
591.0,0.005,2.0981387478849407,0.00011005465513440469,0.10242408769144445
591.5,0.005,2.09636517328825,0.00010986867349439688,0.10238078856133728
592.0,0.005,2.0945945945945947,0.00010968316289262236,0.10233754429813613
592.5,0.005,2.0928270042194095,0.0001094981217397497,0.10229435478606357
593.0,0.005,2.09106239460371,0.00010931354845314507,0.10225121990968397
593.5,0.005,2.0893007582139846,0.0001091294414568383,0.10220813955390208
594.0,0.005,2.0875420875420874,0.0001089457991814894,0.10216511360396188
594.5,0.005,2.08578637510513,0.00010876262006435496,0.10212214194544517
595.0,0.005,2.0840336134453783,0.00010857990254925501,0.10207922446427035
595.5,0.005,2.082283795130143,0.00010839764508653978,0.10203636104669117
596.0,0.005,2.0805369127516777,0.00010821584613305707,0.10199355157929539
596.5,0.005,2.0787929589270746,0.00010803450415211956,0.10195079594900362
597.0,0.005,2.0770519262981573,0.00010785361761347214,0.10190809404306797
597.5,0.005,2.075313807531381,0.00010767318499325993,0.10186544574907089
598.0,0.005,2.0735785953177257,0.00010749320477399584,0.10182285095492381
598.5,0.005,2.071846282372598,0.00010731367544452887,0.10178030954886604
599.0,0.005,2.0701168614357264,0.00010713459550001258,0.10173782141946343
599.5,0.005,2.0683903252710594,0.00010695596344187299,0.1016953864556072
600.0,0.005,2.066666666666667,0.00010677777777777781,0.10165300454651272
600.5,0.005,2.0649458784346377,0.00010660003702160495,0.10161067558171823
601.0,0.005,2.0632279534109816,0.00010642273969341168,0.10156839945108374
601.5,0.005,2.061512884455528,0.00010624588431940378,0.10152617604478975
602.0,0.005,2.0598006644518274,0.00010606946943190474,0.10148400525333603
602.5,0.005,2.0580912863070537,0.00010589349356932559,0.10144188696754053
603.0,0.005,2.056384742951907,0.00010571795527613454,0.10139982107853808
603.5,0.005,2.054681027340514,0.00010554285310282673,0.10135780747777928
604.0,0.005,2.052980132450331,0.00010536818560589446,0.10131584605702927
604.5,0.005,2.051282051282051,0.0001051939513477975,0.10127393670836667
605.0,0.005,2.049586776859504,0.00010502014889693324,0.10123207932418221
605.5,0.005,2.047894302229562,0.00010484677682760764,0.10119027379717782
606.0,0.005,2.046204620462046,0.00010467383372000565,0.10114852002036526
606.5,0.005,2.044517724649629,0.00010450131816016241,0.10110681788706509
607.0,0.005,2.042833607907743,0.00010432922873993416,0.1010651672909055
607.5,0.005,2.0411522633744856,0.00010415756405696964,0.10102356812582115
608.0,0.005,2.039473684210526,0.00010398632271468141,0.10098202028605206
608.5,0.005,2.037797863599014,0.00010381550332221765,0.10094052366614248
609.0,0.005,2.0361247947454846,0.00010364510449443355,0.10089907816093972
609.5,0.005,2.0344544708777685,0.00010347512485186353,0.10085768366559308
610.0,0.005,2.0327868852459017,0.00010330556302069335,0.10081634007555278
610.5,0.005,2.031122031122031,0.00010313641763273213,0.10077504728656869
611.0,0.005,2.0294599018003274,0.00010296768732538489,0.10073380519468943
611.5,0.005,2.027800490596893,0.00010279937074162501,0.10069261369626109
612.0,0.005,2.026143790849673,0.00010263146652996711,0.10065147268792626
612.5,0.005,2.024489795918367,0.0001024639733444398,0.1006103820666229
613.0,0.005,2.0228384991843393,0.00010229688984455877,0.10056934172958326
613.5,0.005,2.0211898940505297,0.00010213021469529979,0.10052835157433275
614.0,0.005,2.019543973941368,0.00010196394656707235,0.10048741149868894
614.5,0.005,2.017900732302685,0.00010179808413569281,0.10044652140076044
615.0,0.005,2.016260162601626,0.00010163262608235837,0.1004056811789459
615.5,0.005,2.014622258326564,0.0001014675710936206,0.10036489073193285
616.0,0.005,2.012987012987013,0.00010130291786135945,0.10032414995869672
616.5,0.005,2.0113544201135443,0.00010113866508275729,0.10028345875849975
617.0,0.005,2.0097244732576987,0.00010097481146027335,0.10024281703089001
617.5,0.005,2.0080971659919027,0.0001008113557016178,0.10020222467570027
618.0,0.005,2.0064724919093853,0.00010064829651972645,0.10016168159304698
618.5,0.005,2.0048504446240907,0.00010048563263273535,0.10012118768332931
619.0,0.005,2.003231017770598,0.00010032336276395564,0.10008074284722805
619.5,0.005,2.0016142050040355,0.00010016148564184842,0.1000403469857046
620.0,0.005,2.0,0.0001,0.1
620.5,0.005,1.9983883964544722,9.983890457709693e-05,0.09995970179163383
621.0,0.005,1.996779388083736,9.967819811690147e-05,0.09991945226240324
621.5,0.005,1.995172968624296,9.951787936822715e-05,0.09987925131438201
622.0,0.005,1.9935691318327975,9.935794708491436e-05,0.09983909884991946
622.5,0.005,1.9919678714859437,9.919840002580604e-05,0.09979899477163945
623.0,0.005,1.9903691813804174,9.903923695472383e-05,0.0997589389824395
623.5,0.005,1.9887730553327987,9.888045664044388e-05,0.09971893138548965
624.0,0.005,1.9871794871794872,9.872205785667326e-05,0.09967897188423161
624.5,0.005,1.9855884707766214,9.856403938202606e-05,0.09963906038237769
625.0,0.005,1.984,9.84064e-05,0.09959919678390985
625.5,0.005,1.982414068745004,9.824913849895306e-05,0.0995593809930788
626.0,0.005,1.9808306709265175,9.809225367207995e-05,0.0995196129144029
626.5,0.005,1.9792498004788508,9.793574431738927e-05,0.0994798924526673
627.0,0.005,1.977671451355662,9.777960923768024e-05,0.09944021951292298
627.5,0.005,1.9760956175298805,9.762384724052001e-05,0.09940059400048575
628.0,0.005,1.9745222929936306,9.746845713822061e-05,0.09936101582093529
628.5,0.005,1.9729514717581544,9.731343774781671e-05,0.0993214848801143
629.0,0.005,1.971383147853736,9.715878789104263e-05,0.09928200108412744
629.5,0.005,1.9698173153296268,9.700450639431046e-05,0.09924256433934048
630.0,0.005,1.9682539682539681,9.685059208868733e-05,0.09920317455237933
630.5,0.005,1.9666931007137192,9.669704380987359e-05,0.09916383163012912
631.0,0.005,1.9651347068145801,9.654386039818064e-05,0.09912453547973327
631.5,0.005,1.9635787806809184,9.639104069850905e-05,0.09908528600859258
632.0,0.005,1.9620253164556962,9.623858356032687e-05,0.09904608312436429
632.5,0.005,1.9604743083003953,9.608648783764783e-05,0.09900692673496121
633.0,0.005,1.9589257503949447,9.593475238900993e-05,0.09896781674855075
633.5,0.005,1.957379636937648,9.578337607745396e-05,0.0989287530735541
634.0,0.005,1.9558359621451105,9.563235777050227e-05,0.09888973561864524
634.5,0.005,1.954294720252167,9.54816963401374e-05,0.09885076429275008
635.0,0.005,1.952755905511811,9.533139066278134e-05,0.09881183900504563
635.5,0.005,1.951219512195122,9.518143961927425e-05,0.09877295966495896
636.0,0.005,1.949685534591195,9.503184209485383e-05,0.0987341261821665
636.5,0.005,1.94815396700707,9.48825969791346e-05,0.098695338466593
637.0,0.005,1.946624803767661,9.473370316608713e-05,0.09865659642841074
637.5,0.005,1.9450980392156862,9.458515955401768e-05,0.09861789997803863
638.0,0.005,1.9435736677115987,9.44369650455479e-05,0.09857924902614136
638.5,0.005,1.942051683633516,9.428911854759435e-05,0.09854064348362852
639.0,0.005,1.9405320813771518,9.414161897134853e-05,0.0985020832616537
639.5,0.005,1.9390148553557467,9.399446523225669e-05,0.0984635682716137
640.0,0.005,1.9375,9.384765625e-05,0.09842509842514764
640.5,0.005,1.9359875097580015,9.37011909484747e-05,0.09838667363413608
641.0,0.005,1.9344773790951637,9.355506825577234e-05,0.09834829381070023
641.5,0.005,1.9329696024941543,9.340928710416022e-05,0.09830995886720109
642.0,0.005,1.9314641744548287,9.326384643006183e-05,0.09827166871623857
642.5,0.005,1.9299610894941635,9.311874517403748e-05,0.0982334232706507
643.0,0.005,1.9284603421461897,9.297398228076498e-05,0.09819522244351274
643.5,0.005,1.926961926961927,9.282955669902057e-05,0.09815706614813645
644.0,0.005,1.9254658385093169,9.268546738165969e-05,0.09811895429806916
644.5,0.005,1.9239720713731574,9.254171328559797e-05,0.098080886807093
645.0,0.005,1.9224806201550388,9.239829337179256e-05,0.09804286358922404
645.5,0.005,1.9209914794732765,9.225520660522321e-05,0.09800488455871158
646.0,0.005,1.9195046439628483,9.211245195487353e-05,0.09796694963003717
646.5,0.005,1.9180201082753288,9.19700283937126e-05,0.09792905871791398
647.0,0.005,1.9165378670788253,9.182793489867635e-05,0.09789121173728584
647.5,0.005,1.915057915057915,9.168617045064922e-05,0.09785340860332652
648.0,0.005,1.9135802469135803,9.154473403444598e-05,0.09781564923143894
648.5,0.005,1.9121048573631456,9.140362463879339e-05,0.09777793353725435
649.0,0.005,1.9106317411402156,9.12628412563123e-05,0.09774026143663152
649.5,0.005,1.9091608929946113,9.112238288349954e-05,0.09770263284565599
650.0,0.005,1.9076923076923078,9.098224852071006e-05,0.09766504768063926
650.5,0.005,1.9062259800153727,9.08424371721392e-05,0.097627505858118
651.0,0.005,1.9047619047619047,9.070294784580498e-05,0.09759000729485331
651.5,0.005,1.903300076745971,9.056377955353046e-05,0.09755255190782994
652.0,0.005,1.901840490797546,9.042493131092625e-05,0.09751513961425542
652.5,0.006,1.9003831417624522,0.0001300124190778174,0.10678154733180595
653.0,0.006,1.898928024502297,0.00012981339512064708,0.10674065835947323
653.5,0.006,1.8974751338944147,0.00012961482781491458,0.10669981632302132
654.0,0.006,1.8960244648318043,0.00012941671576466627,0.10665902113272382
654.5,0.006,1.894576012223071,0.0001292190575792787,0.10661827269909425
655.0,0.005,1.8931297709923665,8.959850824544025e-05,0.09729156620674699
655.5,0.005,1.8916857360793287,8.946187310214979e-05,0.09725445326768663
656.0,0.005,1.8902439024390243,8.93255502676978e-05,0.09721738276766723
656.5,0.005,1.8888042650418888,8.918953879101075e-05,0.0971803546258679
657.0,0.006,1.887366818873668,0.00012823752632347115,0.10641522876563302
657.5,0.006,1.8859315589353611,0.00012804256241958102,0.10637475900612968
658.0,0.006,1.884498480243161,0.0001278480427933962,0.10633433538353905
658.5,0.006,1.8830675778283978,0.00012765396609606632,0.10629395781026496
659.0,0.006,1.881638846737481,0.00012746033098385608,0.10625362619894385
659.5,0.006,1.8802122820318423,0.00012726713611812198,0.10621334046244404
660.0,0.006,1.878787878787879,0.00012707438016528925,0.10617310051386497
660.5,0.006,1.8773656320968963,0.00012688206179682884,0.10613290626653629
661.0,0.006,1.8759455370650528,0.00012669017968923443,0.10609275763401721
661.5,0.006,1.874527588813303,0.00012649873252399977,0.10605265453009566
662.0,0.006,1.8731117824773413,0.00012630771898759592,0.10601259686878747
662.5,0.006,1.8716981132075472,0.00012611713777144892,0.10597258456433571
663.0,0.006,1.8702865761689291,0.00012592698757191704,0.10593261753120978
663.5,0.006,1.8688771665410702,0.00012573726709026885,0.10589269568410477
664.0,0.006,1.8674698795180722,0.00012554797503266075,0.10585281893794059
664.5,0.006,1.8660647103085026,0.00012535911011011522,0.10581298720786128
665.0,0.006,1.8646616541353382,0.0001251706710384985,0.10577320040923424
665.5,0.006,1.8632607062359128,0.0001249826565384991,0.10573345845764943
666.0,0.006,1.8618618618618619,0.00012479506533560588,0.10569376126891866
666.5,0.006,1.8604651162790697,0.00012460789616008654,0.10565410875907486
667.0,0.006,1.8590704647676162,0.0001244211477469661,0.10561450084437125
667.5,0.006,1.857677902621723,0.00012423481883600557,0.10557493744128073
668.0,0.006,1.8562874251497006,0.0001240489081716806,0.10553541846649495
668.5,0.006,1.8548990276738968,0.00012386341450316044,0.1054959438369238
669.0,0.006,1.8535127055306428,0.00012367833658428684,0.1054565134696945
669.5,0.006,1.8521284540702017,0.0001234936731735531,0.10541712728215093
670.0,0.006,1.8507462686567164,0.00012330942303408332,0.10537778519185292
670.5,0.006,1.8493661446681582,0.0001231255849336116,0.10533848711657552
671.0,0.006,1.8479880774962743,0.00012294215764446152,0.10529923297430825
671.5,0.006,1.8466120625465376,0.0001227591399435256,0.10526002268325438
672.0,0.006,1.8452380952380953,0.00012257653061224492,0.10522085616183026
672.5,0.006,1.8438661710037174,0.00012239432843658875,0.10518173332866455
673.0,0.006,1.8424962852897473,0.00012221253220703467,0.1051426541025976
673.5,0.006,1.8411284335560505,0.00012203114071854802,0.10510361840268061
674.0,0.006,1.8397626112759644,0.0001218501527705624,0.10506462614817504
674.5,0.006,1.838398813936249,0.00012166956716695948,0.10502567725855184
675.0,0.006,1.837037037037037,0.0001214893827160494,0.10498677165349082
675.5,0.006,1.8356772760917839,0.00012130959823055106,0.10494790925287985
676.0,0.006,1.834319526627219,0.00012113021252757258,0.10490908997681428
676.5,0.006,1.8329637841832964,0.0001209512244285918,0.10487031374559617
677.0,0.006,1.8316100443131462,0.00012077263275943701,0.10483158047973368
677.5,0.006,1.830258302583026,0.00012059443635026757,0.10479289009994025
678.0,0.006,1.8289085545722714,0.00012041663403555487,0.1047542425271341
678.5,0.006,1.8275607958732498,0.0001202392246540632,0.10471563768243738
679.0,0.006,1.8262150220913107,0.0001200622070488308,0.10467707548717563
679.5,0.006,1.8248712288447388,0.00011988558006715105,0.10463855586287701
680.0,0.006,1.8235294117647058,0.00011970934256055364,0.10460007873127168
680.5,0.006,1.8221895664952241,0.0001195334933847859,0.10456164401429113
681.0,0.006,1.8208516886930983,0.00011935803139979428,0.10452325163406748
681.5,0.006,1.8195157740278798,0.00011918295546970589,0.10448490151293285
682.0,0.006,1.8181818181818181,0.0001190082644628099,0.1044465935734187
682.5,0.006,1.8168498168498168,0.00011883395725153968,0.10440832773825516
683.0,0.006,1.8155197657393851,0.00011866003271245412,0.10437010393037037
683.5,0.006,1.8141916605705926,0.00011848648972621985,0.10433192207288983
684.0,0.006,1.8128654970760234,0.0001183133271775931,0.10429378208913578
684.5,0.006,1.8115412710007304,0.0001181405439554019,0.10425568390262654
685.0,0.006,1.8102189781021898,0.0001179681389525281,0.10421762743707583
685.5,0.006,1.8088986141502552,0.00011779611106588972,0.10417961261639214
686.0,0.006,1.8075801749271136,0.00011762445919642327,0.10414163936467816
686.5,0.006,1.8062636562272396,0.00011745318224906624,0.10410370760623004
687.0,0.006,1.8049490538573507,0.00011728227913273963,0.10406581726553683
687.5,0.006,1.8036363636363637,0.00011711174876033059,0.10402796826727985
688.0,0.006,1.802325581395349,0.00011694159004867498,0.10399016053633196
688.5,0.006,1.8010167029774873,0.00011677180191854033,0.10395239399775709
689.0,0.006,1.7997097242380262,0.00011660238329460887,0.10391466857680949
689.5,0.006,1.798404641044235,0.00011643333310545998,0.10387698419893317
690.0,0.006,1.7971014492753623,0.00011626465028355388,0.10383934078976124
690.5,0.006,1.7958001448225924,0.00011609633376521438,0.1038017382751154
691.0,0.006,1.7945007235890014,0.00011592838249061217,0.1037641765810051
691.5,0.006,1.7932031814895155,0.00011576079540374832,0.10372665563362723
692.0,0.006,1.7919075144508672,0.00011559357145243747,0.10368917535936528
692.5,0.006,1.7906137184115523,0.00011542670958829127,0.10365173568478878
693.0,0.006,1.7893217893217894,0.00011526020876670227,0.10361433653665277
693.5,0.006,1.788031723143475,0.0001150940679468273,0.10357697784189714
694.0,0.006,1.7867435158501441,0.00011492828609157124,0.10353965952764604
694.5,0.006,1.7854571634269258,0.00011476286216757087,0.1035023815212073
695.0,0.006,1.7841726618705036,0.00011459779514517883,0.1034651437500718
695.5,0.006,1.7828900071890725,0.00011443308399844743,0.10342794614191289
696.0,0.006,1.7816091954022988,0.00011426872770511295,0.10339078862458585
696.5,0.006,1.7803302225412778,0.00011410472524657952,0.10335367112612724
697.0,0.006,1.7790530846484935,0.00011394107560790354,0.1033165935747543
697.5,0.006,1.7777777777777777,0.00011377777777777778,0.10327955589886445
698.0,0.006,1.7765042979942693,0.00011361483074851601,0.10324255802703464
698.5,0.006,1.7752326413743738,0.00011345223351603731,0.10320559988802082
699.0,0.006,1.7739628040057225,0.00011328998507985042,0.10316868141075727
699.5,0.006,1.7726947819871337,0.0001131280844430388,0.10313180252435619
700.0,0.006,1.7714285714285714,0.00011296653061224489,0.10309496315810694
700.5,0.006,1.7701641684511062,0.00011280532259765509,0.10305816324147563
701.0,0.006,1.768901569186876,0.00011264445941298452,0.10302140270410443
701.5,0.006,1.7676407697790448,0.00011248394007546196,0.1029846814758111
702.0,0.006,1.7663817663817665,0.00011232376360581491,0.10294799948658837
702.5,0.006,1.7651245551601424,0.00011216392902825448,0.10291135666660339
703.0,0.006,1.763869132290185,0.00011200443537046068,0.1028747529461972
703.5,0.006,1.7626154939587775,0.00011184528166356764,0.10283818825588413
704.0,0.006,1.7613636363636365,0.00011168646694214877,0.10280166252635128
704.5,0.006,1.7601135557132719,0.00011152799024420223,0.10276517568845797
705.0,0.006,1.7588652482269505,0.00011136985061113627,0.10272872767323511
705.5,0.006,1.7576187101346563,0.00011121204708775487,0.10269231841188482
706.0,0.006,1.7563739376770537,0.00011105457872224317,0.10265594783577969
706.5,0.006,1.7551309271054494,0.00011089744456615324,0.10261961587646241
707.0,0.006,1.7538896746817538,0.00011074064367438965,0.10258332246564508
707.5,0.006,1.7526501766784452,0.00011058417510519548,0.10254706753520879
708.0,0.006,1.7514124293785311,0.0001104280379201379,0.10251085101720299
708.5,0.006,1.7501764290755117,0.00011027223118409436,0.10247467284384504
709.0,0.006,1.7489421720733427,0.00011011675396523839,0.10243853294751959
709.5,0.006,1.7477096546863988,0.00010996160533502587,0.10240243126077815
710.0,0.006,1.7464788732394365,0.0001098067843681809,0.10236636771633845
710.5,0.006,1.745249824067558,0.00010965229014268233,0.10233034224708402
711.0,0.006,1.7440225035161745,0.0001094981217397497,0.10229435478606357
711.5,0.006,1.7427969079409698,0.00010934427824382977,0.10225840526649053
712.0,0.006,1.7415730337078652,0.00010919075874258302,0.10222249362174253
712.5,0.006,1.7403508771929825,0.00010903756232686981,0.10218661978536082
713.0,0.006,1.7391304347826086,0.00010888468809073722,0.10215078369104982
713.5,0.006,1.7379117028731605,0.0001087321351314056,0.10211498527267662
714.0,0.006,1.7366946778711485,0.00010857990254925501,0.10207922446427035
714.5,0.006,1.735479356193142,0.00010842798944781228,0.10204350120002181
715.0,0.006,1.7342657342657342,0.0001082763949337376,0.10200781541428287
715.5,0.006,1.7330538085255067,0.0001081251181168115,0.101972167041566
716.0,0.006,1.7318435754189945,0.00010797415810992169,0.10193655601654378
716.5,0.006,1.7306350314026517,0.00010782351402905005,0.10190098227404831
717.0,0.006,1.7294281729428174,0.00010767318499325993,0.10186544574907089
717.5,0.006,1.7282229965156795,0.00010752317012468285,0.10182994637676128
718.0,0.006,1.7270194986072422,0.00010737346854850599,0.10179448409242739
718.5,0.006,1.7258176757132915,0.00010722407939295941,0.10175905883153474
719.0,0.006,1.7246175243393602,0.00010707500178930324,0.10172367052970592
719.5,0.006,1.7234190410006949,0.00010692623487181517,0.10168831912272012
720.0,0.006,1.7222222222222223,0.00010677777777777781,0.10165300454651272
720.5,0.006,1.7210270645385148,0.00010662962964746607,0.10161772673717459
721.0,0.006,1.7198335644937586,0.00010648178962413507,0.10158248563095192
721.5,0.006,1.7186417186417187,0.00010633425685400739,0.10154728116424541
722.0,0.006,1.7174515235457064,0.00010618703048626087,0.10151211327361005
722.5,0.006,1.7162629757785468,0.00010604010967301636,0.10147698189575446
723.0,0.006,1.7150760719225449,0.00010589349356932559,0.10144188696754053
723.5,0.006,1.713890808569454,0.00010574718133315883,0.10140682842598285
724.0,0.006,1.712707182320442,0.000105601172125393,0.10137180620824832
724.5,0.006,1.7115251897860593,0.00010545546510979942,0.1013368202516556
725.0,0.006,1.710344827586207,0.00010531005945303212,0.1013018704936747
725.5,0.006,1.7091660923501033,0.0001051649543246156,0.1012669568719265
726.0,0.006,1.7079889807162534,0.00010502014889693324,0.10123207932418221
726.5,0.006,1.7068134893324156,0.00010487564234521547,0.10119723778836305
727.0,0.006,1.7056396148555708,0.00010473143384752775,0.10116243220253962
727.5,0.006,1.70446735395189,0.00010458752258475929,0.10112766250493156
728.0,0.006,1.7032967032967032,0.00010444390774061103,0.10109292863390702
728.5,0.006,1.702127659574468,0.00010430058850158442,0.10105823052798227
729.0,0.006,1.700960219478738,0.00010415756405696964,0.10102356812582115
729.5,0.006,1.6997943797121315,0.00010401483359883422,0.1009889413662347
730.0,0.006,1.6986301369863013,0.00010387239632201161,0.10095435018818064
730.5,0.006,1.6974674880219027,0.00010373025142408997,0.10091979453076297
731.0,0.006,1.6963064295485637,0.00010358839810540068,0.10088527433323152
731.5,0.006,1.695146958304853,0.00010344683556900704,0.10085078953498143
732.0,0.006,1.6939890710382515,0.00010330556302069338,0.10081634007555278
732.5,0.006,1.6928327645051195,0.00010316457966895364,0.10078192589463011
733.0,0.006,1.6916780354706684,0.00010302388472498039,0.10074754693204202
733.5,0.006,1.6905248807089297,0.00010288347740265386,0.10071320312776065
734.0,0.006,1.6893732970027249,0.00010274335691853085,0.1006788944219013
734.5,0.006,1.688223281143635,0.00010260352249183371,0.10064462075472196
735.0,0.006,1.6870748299319729,0.00010246397334443984,0.10061038206662291
735.5,0.006,1.6859279401767504,0.00010232470870087033,0.10057617829814623
736.0,0.006,1.684782608695652,0.00010218572778827977,0.10054200938997546
736.5,0.006,1.6836388323150033,0.00010204702983644501,0.10050787528293502
737.0,0.006,1.682496607869742,0.0001019086140777548,0.10047377591798994
737.5,0.006,1.6813559322033897,0.00010177047974719908,0.10043971123624529
738.0,0.006,1.6802168021680217,0.00010163262608235841,0.1004056811789459
738.5,0.006,1.6790792146242384,0.00010149505232339338,0.10037168568747579
739.0,0.005,1.6779431664411366,7.03873317451627e-05,0.09159539198128737
739.5,0.006,1.6768086544962812,0.00010122074149657066,0.10030379816825327
740.0,0.006,1.6756756756756757,0.00010108400292184077,0.10026990602396142
740.5,0.006,1.674544226873734,0.00010094754123922144,0.10023604821241909
741.0,0.005,1.6734143049932524,7.000788590390125e-05,0.09147169794513635
741.5,0.005,1.672285906945381,6.991350386420339e-05,0.09144085265747966
742.0,0.005,1.6711590296495957,6.981931255948447e-05,0.09141003855292908
742.5,0.006,1.67003367003367,0.00010040444852566063,0.1001009591372731
743.0,0.006,1.6689098250336474,0.00010026936014737824,0.10006727212331655
743.5,0.006,1.6677874915938131,0.00010013454421620422,0.10003361909659612
744.0,0.005,1.6666666666666667,6.944444444444444e-05,0.09128709291752768
744.5,0.005,1.6655473472128945,6.935119914519775e-05,0.09125643394339093
745.0,0.005,1.6644295302013423,6.925814152515654e-05,0.09122580583917421
745.5,0.005,1.6633132126089873,6.916527108099075e-05,0.0911952085531084
746.0,0.006,1.6621983914209115,9.946452572792156e-05,0.09986586177731342
746.5,0.006,1.6610850636302745,9.933132919016136e-05,0.09983241147934696
747.0,0.006,1.6599732262382865,9.919840002580604e-05,0.09979899477163945
747.5,0.006,1.6588628762541806,9.906573751971454e-05,0.09976561159801048
748.0,0.006,1.6577540106951871,9.893334095913524e-05,0.09973226190241112
748.5,0.005,1.6566466265865063,6.861195113451129e-05,0.09101226913407078
749.0,0.005,1.6555407209612818,6.852037696902502e-05,0.09098188613568313
749.5,0.005,1.6544362908605736,6.842898601291231e-05,0.09095153354563555
750.0,0.005,1.6533333333333333,6.833777777777778e-05,0.09092121131323905
750.5,0.005,1.6522318454363758,6.824675177685231e-05,0.09089091938792279
751.0,0.005,1.6511318242343542,6.815590752498665e-05,0.09086065771923385
751.5,0.005,1.650033266799734,6.806524453864506e-05,0.09083042625683681
752.0,0.005,1.648936170212766,6.797476233589863e-05,0.09080022495051338
752.5,0.005,1.6478405315614617,6.7884460436419e-05,0.09077005375016205
753.0,0.006,1.6467463479415672,9.762384724052001e-05,0.09940059400048575
753.5,0.006,1.645653616456536,9.749432971283314e-05,0.09936760890118679
754.0,0.006,1.6445623342175066,9.736506976056961e-05,0.09933465661744162
754.5,0.005,1.6434724983432738,6.752504632026707e-05,0.09064966901051746
755.0,0.005,1.6423841059602649,6.743563878777245e-05,0.0906196475925686
755.5,0.005,1.641297154202515,6.734640870983185e-05,0.09058965598241653
756.0,0.005,1.6402116402116402,6.725735561714399e-05,0.0905596941307677
756.5,0.005,1.6391275611368143,6.716847904195803e-05,0.09052976198844263
757.0,0.005,1.6380449141347424,6.70797785180674e-05,0.09049985950637554
757.5,0.005,1.636963696369637,6.699125358080362e-05,0.09046998663561405
758.0,0.005,1.6358839050131926,6.690290376703031e-05,0.09044014332731878
758.5,0.005,1.6348055372445616,6.681472861513699e-05,0.09041032953276305
759.0,0.005,1.6337285902503293,6.672672766503322e-05,0.0903805452033326
759.5,0.005,1.6326530612244898,6.663890045814245e-05,0.09035079029052513
760.0,0.005,1.631578947368421,6.655124653739612e-05,0.09032106474595007
760.5,0.005,1.6305062458908612,6.646376544722773e-05,0.09029136852132824
761.0,0.005,1.6294349540078843,6.637645673356689e-05,0.0902617015684915
761.5,0.005,1.628365068942876,6.628931994383345e-05,0.0902320638393824
762.0,0.005,1.627296587926509,6.620235462693147e-05,0.09020245528605386
762.5,0.005,1.6262295081967213,6.611556033324375e-05,0.09017287586066891
763.0,0.005,1.6251638269986894,6.602893661462567e-05,0.0901433255155003
763.5,0.005,1.6240995415848067,6.59424830243995e-05,0.09011380420293016
764.0,0.005,1.6230366492146597,6.585619911734876e-05,0.09008431187544975
764.5,0.005,1.6219751471550032,6.577008444971236e-05,0.09005484848565909
765.0,0.005,1.6209150326797386,6.568413857917895e-05,0.09002541398626664
765.5,0.005,1.619856303069889,6.55983610648812e-05,0.08999600833008899
766.0,0.005,1.6187989556135771,6.551275146739022e-05,0.08996663147005053
766.5,0.005,1.6177429876060012,6.542730934870977e-05,0.08993728335918318
767.0,0.005,1.6166883963494132,6.534203427227093e-05,0.089907963950626
767.5,0.005,1.6156351791530945,6.525692580292629e-05,0.08987867319762499
768.0,0.005,1.6145833333333333,6.517198350694443e-05,0.0898494110535326
768.5,0.005,1.6135328562134028,6.508720695200453e-05,0.08982017747180761
769.0,0.005,1.612483745123537,6.500259570719071e-05,0.08979097240601466
769.5,0.005,1.6114359974009096,6.491814934298662e-05,0.08976179580982406
770.0,0.005,1.6103896103896105,6.483386743127005e-05,0.08973264763701143
770.5,0.005,1.6093445814406229,6.474974954530733e-05,0.08970352784145735
771.0,0.005,1.608300907911803,6.466579525974825e-05,0.08967443637714717
771.5,0.005,1.6072585871678549,6.458200415062022e-05,0.08964537319817055
772.0,0.005,1.6062176165803108,6.449837579532336e-05,0.0896163382587213
772.5,0.005,1.6051779935275081,6.441490977262492e-05,0.08958733151309699
773.0,0.005,1.6041397153945667,6.433160566265404e-05,0.08955835291569868
773.5,0.005,1.6031027795733679,6.424846304689647e-05,0.08952940242103061
774.0,0.005,1.6020671834625324,6.416548150818928e-05,0.08950047998369988
774.5,0.005,1.6010329244673984,6.408266063071577e-05,0.08947158555841622
775.0,0.005,1.6,6.4e-05,0.08944271909999159
775.5,0.005,1.5989684074790458,6.391749920290191e-05,0.08941388056334
776.0,0.005,1.597938144329897,6.383515782761187e-05,0.08938506990347708
776.5,0.005,1.596909207984546,6.375297546364575e-05,0.08935628707551993
777.0,0.005,1.595881595881596,6.367095170183972e-05,0.0893275320346867
777.5,0.005,1.594855305466238,6.358908613434518e-05,0.08929880473629638
778.0,0.005,1.5938303341902313,6.35073783546236e-05,0.08927010513576847
778.5,0.005,1.5928066795118818,6.342582795744167e-05,0.0892414331886227
779.0,0.005,1.5917843388960204,6.334443453886603e-05,0.08921278885047873
779.5,0.005,1.5907633098139833,6.326319769625849e-05,0.0891841720770559
780.0,0.005,1.5897435897435896,6.318211702827088e-05,0.08915558282417287
780.5,0.005,1.5887251761691223,6.310119213484021e-05,0.08912702104774742
781.0,0.005,1.587708066581306,6.302042261718371e-05,0.0890984867037961
781.5,0.005,1.5866922584772873,6.293980807779388e-05,0.08906997974843398
782.0,0.005,1.5856777493606138,6.285934812043354e-05,0.0890415001378743
782.5,0.005,1.584664536741214,6.277904235013118e-05,0.08901304782842834
783.0,0.005,1.5836526181353767,6.269889037317585e-05,0.08898462277650496
783.5,0.005,1.5826419910657308,6.261889179711252e-05,0.08895622493861041
784.0,0.005,1.5816326530612246,6.253904623073721e-05,0.0889278542713481
784.5,0.005,1.5806246016571064,6.245935328409216e-05,0.08889951073141815
785.0,0.005,1.5796178343949046,6.237981256846121e-05,0.08887119427561736
785.5,0.005,1.5786123488224062,6.230042369636485e-05,0.08884290486083866
786.0,0.005,1.5776081424936388,6.222118628155575e-05,0.0888146424440711
786.5,0.005,1.5766052129688493,6.214209993901376e-05,0.08878640698239931
787.0,0.005,1.5756035578144854,6.20631642849416e-05,0.0887581984330035
787.5,0.005,1.5746031746031746,6.19843789367599e-05,0.08873001675315899
788.0,0.005,1.5736040609137056,6.190574351310263e-05,0.08870186190023593
788.5,0.005,1.5726062143310082,6.182725763381262e-05,0.08867373383169923
789.0,0.005,1.5716096324461344,6.174892091993686e-05,0.08864563250510807
789.5,0.005,1.5706143128562382,6.167073299372183e-05,0.08861755787811573
790.0,0.005,1.5696202531645569,6.15926934786092e-05,0.08858950990846932
790.5,0.005,1.5686274509803921,6.151480199923106e-05,0.08856148855400953
791.0,0.005,1.5676359039190897,6.143705818140554e-05,0.0885334937726703
791.5,0.005,1.5666456096020214,6.135946165213223e-05,0.08850552552247858
792.0,0.005,1.5656565656565657,6.128201203958779e-05,0.08847758376155414
792.5,0.005,1.5646687697160884,6.120470897312144e-05,0.08844966844810918
793.0,0.005,1.5636822194199242,6.11275520832505e-05,0.08842177954044818
793.5,0.005,1.5626969124133585,6.10505410016561e-05,0.08839391699696758
794.0,0.005,1.561712846347607,6.0973675361178617e-05,0.08836608077615549
794.5,0.005,1.5607300188797986,6.0896954795813404e-05,0.0883382708365915
795.0,0.005,1.559748427672956,6.082037894070647e-05,0.08831048713694643
795.5,0.005,1.5587680703959774,6.074394743214997e-05,0.08828272963598195
796.0,0.005,1.5577889447236182,6.066765990757809e-05,0.0882549982925505
796.5,0.005,1.556811048336472,6.059151600556263e-05,0.08822729306559485
797.0,0.005,1.5558343789209537,6.0515515365808744e-05,0.08819961391414799
797.5,0.005,1.554858934169279,6.043965762915065e-05,0.08817196079733282
798.0,0.005,1.5538847117794485,6.03639424375475e-05,0.08814433367436186
798.5,0.005,1.5529117094552285,6.0288369434079e-05,0.08811673250453708
799.0,0.005,1.5519399249061328,6.021293826294133e-05,0.08808915724724958
799.5,0.005,1.5509693558474047,6.0137648569442845e-05,0.08806160786197935
800.0,0.005,1.55,6.006250000000001e-05,0.08803408430829505
800.5,0.005,1.5490318550905684,5.9987492202133204e-05,0.08800658654585373
801.0,0.005,1.5480649188514357,5.991262482446256e-05,0.0879791145344006
801.5,0.005,1.5470991890205863,5.9837897516703905e-05,0.08795166823376878
802.0,0.005,1.546134663341646,5.976330992966463e-05,0.08792424760387904
802.5,0.005,1.5451713395638629,5.968886171523956e-05,0.08789685260473958
803.0,0.005,1.544209215442092,5.961455252640704e-05,0.08786948319644575
803.5,0.005,1.5432482887367767,5.954038201722474e-05,0.08784213933917982
804.0,0.005,1.5422885572139304,5.9466349842825685e-05,0.08781482099321078
804.5,0.005,1.541330018645121,5.9392455659414236e-05,0.08778752811889401
805.0,0.005,1.5403726708074534,5.931869912426218e-05,0.08776026067667111
805.5,0.005,1.5394165114835505,5.9245079895704615e-05,0.08773301862706967
806.0,0.005,1.5384615384615385,5.91715976331361e-05,0.08770580193070292
806.5,0.005,1.537507749535028,5.9098251997006665e-05,0.08767861054826964
807.0,0.005,1.5365551425030979,5.9025042648817886e-05,0.0876514444405538
807.5,0.005,1.5356037151702786,5.895196925111906e-05,0.0876243035684244
808.0,0.005,1.5346534653465347,5.8879031467503194e-05,0.0875971878928352
808.5,0.005,1.533704390847248,5.880622896260321e-05,0.08757009737482448
809.0,0.005,1.5327564894932015,5.8733561402088074e-05,0.0875430319755148
809.5,0.005,1.5318097591105622,5.8661028452658964e-05,0.08751599165611283
810.0,0.005,1.5308641975308641,5.858862978204541e-05,0.087488976377909
810.5,0.005,1.5299198025909932,5.851636505900159e-05,0.0874619861022774
811.0,0.005,1.528976572133169,5.844423395330239e-05,0.08743502079067543
811.5,0.005,1.5280345040049292,5.8372236135739756e-05,0.08740808040464364
812.0,0.005,1.5270935960591132,5.830037127811885e-05,0.08738116490580546
812.5,0.005,1.5261538461538462,5.822863905325444e-05,0.08735427425586702
813.0,0.005,1.5252152521525215,5.8157039134966995e-05,0.08732740841661688
813.5,0.005,1.524277811923786,5.808557119807913e-05,0.0873005673499258
814.0,0.005,1.5233415233415233,5.801423491841182e-05,0.08727375101774655
814.5,0.005,1.5224063842848374,5.79430299727808e-05,0.08724695938211363
815.0,0.005,1.521472392638037,5.787195603899282e-05,0.08722019240514312
815.5,0.005,1.5205395462906193,5.7801012795842054e-05,0.08719345004903233
816.0,0.005,1.5196078431372548,5.7730199923106496e-05,0.08716673227605974
816.5,0.005,1.518677281077771,5.7659517101544274e-05,0.08714003904858464
817.0,0.005,1.517747858017136,5.758896401289011e-05,0.08711337032904697
817.5,0.005,1.5168195718654434,5.751854033985167e-05,0.08708672607996706
818.0,0.005,1.5158924205378974,5.7448245766106145e-05,0.08706010626394553
818.5,0.005,1.5149664019547953,5.7378079976296465e-05,0.08703351084366284
819.0,0.005,1.514041514041514,5.7308042656028e-05,0.0870069397818793
819.5,0.005,1.513117754728493,5.723813349186491e-05,0.08698039304143472
820.0,0.005,1.5121951219512195,5.71683521713266e-05,0.08695387058524824
820.5,0.005,1.5112736136502132,5.709869838288435e-05,0.08692737237631808
821.0,0.005,1.510353227771011,5.702917181595778e-05,0.08690089837772136
821.5,0.005,1.509433962264151,5.695977216091137e-05,0.08687444855261388
822.0,0.005,1.508515815085158,5.689049910905097e-05,0.08684802286422985
822.5,0.005,1.5075987841945289,5.682135235262054e-05,0.08682162127588176
823.0,0.005,1.5066828675577157,5.675233158479853e-05,0.08679524375096011
823.5,0.005,1.5057680631451122,5.668343649969457e-05,0.08676889025293318
824.0,0.005,1.5048543689320388,5.661466679234612e-05,0.08674256074534688
824.5,0.005,1.5039417828987265,5.6546022158715005e-05,0.08671625519182452
825.0,0.005,1.503030303030303,5.6477502295684106e-05,0.08668997355606653
825.5,0.005,1.5021199273167778,5.640910690105405e-05,0.08666371580185037
826.0,0.005,1.5012106537530265,5.634083567353974e-05,0.08663748189303018
826.5,0.005,1.5003024803387779,5.627268831276722e-05,0.08661127179353671
827.0,0.005,1.4993954050785974,5.6204664519270284e-05,0.08658508546737705
827.5,0.005,1.498489425981873,5.613676399448709e-05,0.08655892287863433
828.0,0.005,1.497584541062802,5.6068986440757073e-05,0.0865327839914677
828.5,0.005,1.4966807483403741,5.6001331561317553e-05,0.086506668770112
829.0,0.005,1.4957780458383594,5.5933799060300527e-05,0.08648057717887755
829.5,0.005,1.4948764315852923,5.586638864272943e-05,0.08645450918215002
830.0,0.005,1.4939759036144578,5.579910001451589e-05,0.08642846474439013
830.5,0.005,1.4930764599638773,5.57319328824566e-05,0.08640244383013357
831.0,0.005,1.4921780986762936,5.5664886954229966e-05,0.08637644640399064
831.5,0.005,1.491280817799158,5.559796193839315e-05,0.08635047243064621
832.0,0.005,1.4903846153846154,5.553115754437871e-05,0.0863245218748594
832.5,0.005,1.4894894894894894,5.54644734824915e-05,0.08629859470146341
833.0,0.005,1.4885954381752702,5.539790946390562e-05,0.08627269087536538
833.5,0.005,1.4877024595080983,5.5331465200661124e-05,0.08624681036154608
834.0,0.005,1.486810551558753,5.526514040566108e-05,0.08622095312505984
834.5,0.005,1.4859197124026362,5.519893479266834e-05,0.08619511913103423
835.0,0.005,1.4850299401197604,5.5132848076302476e-05,0.08616930834466992
835.5,0.005,1.4841412327947336,5.506687997203679e-05,0.08614352073124054
836.0,0.005,1.4832535885167464,5.5001030196195144e-05,0.08611775625609235
836.5,0.005,1.4823670053795577,5.493529846594894e-05,0.08609201488464414
837.0,0.005,1.4814814814814814,5.486968449931412e-05,0.08606629658238704
837.5,0.005,1.480597014925373,5.4804188015148134e-05,0.08604060131488428
838.0,0.005,1.4797136038186158,5.473880873314689e-05,0.086014929047771
838.5,0.005,1.4788312462731068,5.467354637384176e-05,0.08598927974675409
839.0,0.005,1.4779499404052443,5.4608400658596635e-05,0.085963653377612
839.5,0.005,1.4770696843359141,5.4543371309604926e-05,0.08593804990619447
840.0,0.005,1.4761904761904763,5.4478458049886624e-05,0.08591246929842246
840.5,0.005,1.4753123140987507,5.441366060328528e-05,0.08588691152028785
841.0,0.005,1.474435196195006,5.434897869446515e-05,0.08586137653785333
841.5,0.005,1.4735591206179441,5.4284412048908215e-05,0.08583586431725215
842.0,0.005,1.4726840855106889,5.4219960392911354e-05,0.08581037482468798
842.5,0.005,1.4718100890207715,5.415562345358328e-05,0.08578490802643468
843.0,0.005,1.4709371293001186,5.409140095884185e-05,0.08575946388883617
843.5,0.005,1.4700652045050386,5.402729263741103e-05,0.08573404237830615
844.0,0.005,1.4691943127962086,5.3963298218818094e-05,0.085708643461328
844.5,0.005,1.4683244523386618,5.3899417433390785e-05,0.08568326710445459
845.0,0.004,1.467455621301775,3.445481600784286e-05,0.07661476675685373
845.5,0.005,1.4665878178592548,5.3771995687329275e-05,0.08563258193757954
846.0,0.005,1.4657210401891252,5.370845419132728e-05,0.08560727306102926
846.5,0.005,1.4648552864737152,5.3645025257749755e-05,0.08558198661148604
847.0,0.005,1.463990554899646,5.358170862088433e-05,0.0855567225558473
847.5,0.005,1.463126843657817,5.3518504015802155e-05,0.08553148086107878
848.0,0.005,1.4622641509433962,5.345541117835529e-05,0.08550626149421445
848.5,0.004,1.4614024749558043,3.417115510091121e-05,0.07645658833497096
849.0,0.005,1.4605418138987043,5.332955975366293e-05,0.08545588961267399
849.5,0.005,1.4596821659799881,5.326680064200074e-05,0.08543073703240503
850.0,0.005,1.4588235294117646,5.3204152249134945e-05,0.08540560664885428
850.5,0.005,1.4579659024103468,5.314161431478043e-05,0.08538049842939391
851.0,0.005,1.4571092831962398,5.3079186579416486e-05,0.08535541234146314
851.5,0.005,1.456253669994128,5.301686878428416e-05,0.08533034835256821
852.0,0.005,1.4553990610328638,5.2954660671383536e-05,0.08530530643028204
852.5,0.004,1.4545454545454546,3.3851239669421494e-05,0.07627700713964738
853.0,0.004,1.4536928487690504,3.3811566376996435e-05,0.07625464835061664
853.5,0.005,1.4528412419449326,5.276869185740236e-05,0.08523031273980322
854.0,0.005,1.4519906323185012,5.270691990851703e-05,0.08520535876101049
854.5,0.005,1.4511410181392628,5.26452563631564e-05,0.08518042668768638
855.0,0.005,1.4502923976608186,5.258370096781915e-05,0.08515551648780068
855.5,0.005,1.4494447691408534,5.252225346974455e-05,0.08513062812938871
856.0,0.005,1.4485981308411215,5.2460913616909776e-05,0.0851057615805511
856.5,0.005,1.4477524810274371,5.23996811580275e-05,0.08508091680945373
857.0,0.005,1.4469078179696615,5.2338555842543175e-05,0.08505609378432745
857.5,0.005,1.446064139941691,5.2277537420632553e-05,0.085031292473468
858.0,0.005,1.4452214452214451,5.221662564319906e-05,0.08500651284523572
858.5,0.005,1.4443797320908562,5.215582026187135e-05,0.08498175486805554
859.0,0.005,1.4435389988358556,5.209512102900061e-05,0.08495701851041665
859.5,0.005,1.4426992437463642,5.203452769765827e-05,0.08493230374087248
860.0,0.005,1.441860465116279,5.197404002163331e-05,0.08490761052804038
860.5,0.005,1.4410226612434631,5.191365775542981e-05,0.08488293884060162
861.0,0.005,1.4401858304297328,5.1853380654264484e-05,0.08485828864730106
861.5,0.005,1.4393499709808473,5.1793208474064147e-05,0.0848336599169471
862.0,0.005,1.4385150812064966,5.1733140971463345e-05,0.08480905261841146
862.5,0.005,1.4376811594202898,5.167317790380172e-05,0.08478446672062902
863.0,0.005,1.436848203939745,5.161331902912178e-05,0.08475990219259769
863.5,0.004,1.4360162130862768,3.2994281027946414e-05,0.07578960913176097
864.0,0.005,1.4351851851851851,5.149391289437586e-05,0.08471083712209393
864.5,0.005,1.434355118565645,5.1434365153886636e-05,0.08468633651793082
865.0,0.005,1.4335260115606936,5.137492064552775e-05,0.08466185716013716
865.5,0.005,1.4326978625072213,5.1315579130819024e-05,0.08463739901802339
866.0,0.004,1.4318706697459584,3.280405783805984e-05,0.07568013397836869
866.5,0.004,1.4310444316214657,3.2766210644396854e-05,0.0756582958206558
867.0,0.004,1.4302191464821223,3.272842891142481e-05,0.0756364765568075
867.5,0.005,1.4293948126801153,5.107923826292055e-05,0.08453977799474385
868.0,0.004,1.4285714285714286,3.265306122448979e-05,0.07559289460184544
868.5,0.005,1.427748992515832,5.0961679640749335e-05,0.08449109398379903
869.0,0.005,1.42692750287687,5.09030524616605e-05,0.08446678349732722
869.5,0.005,1.4261069580218517,5.084452639295849e-05,0.08444249398323843
870.0,0.004,1.4252873563218391,3.250310476945435e-05,0.07550595622391228
870.5,0.004,1.424468696151637,3.246577706105512e-05,0.0754842684577823
871.0,0.004,1.423650975889782,3.2428513618430856e-05,0.07546259936921818
871.5,0.005,1.4228341939185312,5.0611428584594904e-05,0.08434554504888006
872.0,0.005,1.4220183486238531,5.055340459557276e-05,0.0843213599458599
872.5,0.005,1.4212034383954155,5.049548033267379e-05,0.08429719563530615
873.0,0.004,1.420389461626575,3.228009956319731e-05,0.07537610925556121
873.5,0.004,1.4195764167143674,3.224315524626566e-05,0.07535453315400123
874.0,0.003,1.4187643020594967,1.8116029303185337e-05,0.06524027058633716
874.5,0.004,1.4179531160663237,3.2169456629795157e-05,0.07531143647723959
875.0,0.004,1.417142857142857,3.213270204081632e-05,0.07528991584914561
875.5,0.005,1.4163335237007424,5.015001625896404e-05,0.08415264475049915
876.0,0.004,1.4155251141552512,3.205938158086779e-05,0.07524692988169687
876.5,0.004,1.414717626925271,3.202281542292912e-05,0.07522546448976626
877.0,0.004,1.4139110604332954,3.19863117890497e-05,0.07520401745740171
877.5,0.004,1.413105413105413,3.1949870536765126e-05,0.07518258875844627
878.0,0.004,1.4123006833712983,3.191349152401658e-05,0.07516117836679514
878.5,0.004,1.4114968696642003,3.1877174609149384e-05,0.0751397862563955
879.0,0.004,1.410693970420933,3.1840919650911624e-05,0.07511841240124642
879.5,0.004,1.4098919840818647,3.180472650845275e-05,0.07509705677539873
880.0,0.003,1.4090909090909092,1.7869834710743807e-05,0.0650174801670499
880.5,0.003,1.408290743895514,1.784954537407602e-05,0.06499901715938897
881.0,0.003,1.4074914869466515,1.7829290572445664e-05,0.06498056987161589
881.5,0.005,1.406693136698809,4.9469639520888344e-05,0.08386575989934178
882.0,0.004,1.4058956916099774,3.162468313099995e-05,0.07499055118106487
882.5,0.004,1.405099150141643,3.158885794766028e-05,0.07496930438897358
883.0,0.004,1.404303510758777,3.155309360527083e-05,0.07494807564597712
883.5,0.005,1.4035087719298245,4.924592182209911e-05,0.08377078165833911
884.0,0.006,1.4027149321266967,7.083393050920332e-05,0.09174033787140845
884.5,0.005,1.4019219898247597,4.913463163885534e-05,0.08372341338672115
885.0,0.005,1.4011299435028248,4.9079127964505734e-05,0.08369975936353774
885.5,0.005,1.4003387916431396,4.9023718284514205e-05,0.08367612537764699
886.0,0.005,1.399548532731377,4.896840238676376e-05,0.08365251140077556
886.5,0.005,1.3987591652566271,4.8913180059735416e-05,0.08362891740470599
887.0,0.003,1.3979706877113867,1.758889839330223e-05,0.0647604204984353
887.5,0.002,1.3971830985915492,7.80848244395953e-06,0.05286176498361645
888.0,0.002,1.3963963963963963,7.799691583475367e-06,0.05284688063445933
888.5,0.003,1.3956105796285876,1.752956000974118e-05,0.06470573188586744
889.0,0.004,1.3948256467941507,3.1128617359275535e-05,0.07469472931322935
889.5,0.003,1.3940415964024733,1.7490167752503203e-05,0.06466934968907156
890.0,0.003,1.3932584269662922,1.7470521398813282e-05,0.06465118158934821
890.5,0.003,1.3924761370016845,1.7450908129072203e-05,0.06463302879337354
891.0,0.004,1.3916947250280585,3.098902732273478e-05,0.07461084974795713
891.5,0.004,1.3909141895681436,3.095427652387209e-05,0.0745899239728301
892.0,0.004,1.390134529147982,3.091958414607171e-05,0.07456901579471147
892.5,0.003,1.3893557422969187,1.7372784407880798e-05,0.06456057021813513
893.0,0.004,1.3885778275475924,3.085037413050866e-05,0.0745272521309512
893.5,0.003,1.387800783435926,1.7333919130548335e-05,0.06452443219670963
894.0,0.003,1.3870246085011186,1.7314535381289134e-05,0.06450638592808743
894.5,0.003,1.3862493012856345,1.7295184127834188e-05,0.06448835479260502
895.0,0.005,1.3854748603351956,4.798851471552075e-05,0.08323084945905562
895.5,0.005,1.3847012841987716,4.793494116154318e-05,0.08320761035502616
896.0,0.006,1.3839285714285714,6.894929846938776e-05,0.09112393444409339
896.5,0.004,1.3831567205800335,3.060996021897141e-05,0.07438163000580274
897.0,0.007,1.3823857302118172,9.36385250475697e-05,0.09837021963725974
897.5,0.005,1.3816155988857939,4.772154157711377e-05,0.08311484821876876
898.0,0.005,1.3808463251670378,4.766841434318281e-05,0.08309170611941476
898.5,0.002,1.3800779076238174,7.618460124445336e-06,0.05253718507160081
899.0,0.002,1.3793103448275863,7.609988109393581e-06,0.05252257314388902
899.5,0.003,1.3785436353529739,1.710344299114974e-05,0.0643088711303419
900.0,0.003,1.3777777777777778,1.7084444444444444e-05,0.06429100507328636
